x,y,z,charge,hbond,hphob,iface,nx,ny,nz
-35.285,51.818,137.18,0.0191459,0,2.8,0,0.241274,0.408434,0.880323
-31.446,40.29,92.176,-1.16777,-0.735097,-3.5,0,-0.13979,0.729701,-0.669325
-28.55,25.837,102.763,0.235133,0,-4.5,0,0.752601,-0.461282,-0.469905
-57.088,74.942,147.698,0.00444719,0,-4.5,0,-0.363351,0.61519,-0.699655
-28.689,34.348,91.536,-0.861071,-0.0755852,-3.5,0,0.525086,0.309496,-0.792778
-41.626,55.794,137.619,-0.430791,-0.908158,-1.6,1,-0.883833,-0.235391,-0.404266
-59.088,68.6,145.387,-0.0794901,0,-0.7,0,-0.778064,0.189005,-0.599077
-53.471,79.423,159.121,-0.185778,0,3.8,0,0.503889,0.826227,-0.251883
-19.059,46.446,117.321,-1.00175,-0,-3.5,0,0.631005,0.341069,-0.696782
-42.2765,62.923,138.584,0.018483,0,-1.6,1,-0.419672,0.856195,-0.30134
-38.9115,55.859,156.331,0.0490375,0,-4.5,0,0.363269,-0.859999,0.358382
-48.9725,39.1855,141.635,-0.899676,-0.703914,-3.5,1,-0.0175162,-0.278749,-0.960204
-63.001,59.942,167.292,0.795279,0,-3.48121,0,-0.741391,0.477268,0.471757
-26.0915,41.734,95.847,-1.01341,0,1.9,0,0.521312,-0.332565,-0.785897
-45.133,68.8965,140.193,0.751131,0,2.7702,1,-0.223936,-0.0281362,-0.974198
-46.4585,50.793,160.424,-1.20071,-0.730525,-0.8,0,0.659773,-0.575433,0.483298
-36.5115,59.8395,142.334,0.534865,0,-1.6,0,0.755954,0.618707,-0.213857
-61.357,41.502,147.477,-0.989498,-0,-3.5,1,0.469983,-0.882447,0.0200971
-41.956,33.6155,97.562,0.623722,0,-0.376938,0,-0.809928,-0.471636,0.348679
-43.8425,45.039,151.872,-0.560173,0,-3.5,0,0.535051,-0.746586,0.395387
-40.1595,57.228,136.284,-0.824281,0,-1.6,1,0.0461107,0.349675,-0.935736
-46.73,40.5115,148.521,-0.221986,0,-0.7,0,0.525878,-0.295644,0.797525
-38.317,44.545,127.83,-1.16794,-0.14848,-1.3,0,0.303853,0.687298,0.659768
-32.476,29.851,123.654,-0.319089,0,-3.5,0,0.408184,-0.307689,0.859484
-29.2145,46.5025,128.845,-1.12693,0,-3.5,0,0.86231,0.0551625,0.503367
-48.343,47.117,162.709,-0.0183308,0,4.42514,0,0.0602596,-0.508945,0.858687
-68.746,62.874,164.996,-0.41289,0,1.9,0,-0.705025,0.460123,0.539654
-32.7245,46.8115,129.868,-0.966931,0,-3.5,0,-0.926752,-0.233505,0.294288
-47.3195,51.3952,168.031,0.174868,0,4.5,0,0.330394,-0.0856841,0.939946
-39.0535,46.3015,110.055,-0.128518,-0.187085,-3.32781,1,-0.247264,0.965679,0.0795291
-23.915,32.533,108.715,0.18422,0.0114439,-3.5,0,-0.275996,-0.875063,0.397607
-19.013,43.8395,108.157,0.11895,0,2.8,0,0.911694,0.0535572,-0.407364
-40.9225,34.84,101.581,0.751654,-0.227516,1.31082,0,-0.851146,-0.41162,-0.325759
-51.0515,63.4475,177.32,-0.107565,0,3.8,0,0.128422,0.623927,0.770858
-40.8445,82.229,146.833,0.147144,0,1.9,0,0.819246,0.320773,0.475333
-34.118,27.2745,95.1645,-0.915093,-0.696251,-1.6,0,-0.163733,-0.833983,-0.526938
-57.958,49.5485,138.24,0.0796162,0,-1.6,1,-0.746104,0.506489,-0.432201
-43.431,50.3115,129.854,0.148467,0,-1.6,1,-0.34521,0.773953,0.530873
-29.3655,23.2665,105.543,0.835217,0,-4.5,0,0.701221,-0.453607,0.550027
-50.6975,39.855,117.524,0.231599,0,4.5,1,-0.702961,-0.0518947,0.709332
-51.5545,49.8085,133.444,0.565051,0,-3.5,1,-0.245742,0.917131,0.313819
-76.516,76.904,155.667,0.659669,0,-4.5,0,-0.0281938,0.751688,-0.658916
-22.219,49.507,102.344,0.934819,0,-4.5,1,0.84682,0.203359,0.491468
-62.161,73.115,158.021,0.427366,0,-4.5,0,-0.737815,0.0597724,-0.672351
-48.159,40.4505,129.507,1.42945,0,-4.23294,1,-0.837147,-0.452862,-0.306759
-41.596,40.8005,103.096,1.00347,0.23963,-4.5,1,-0.892027,0.342277,-0.295186
-38.9075,67.0295,150.009,-0.172797,0,-0.7,0,0.524337,0.597718,0.606468
-48.5665,32.8935,142.692,0.281695,0.167431,-0.7,1,-0.765824,-0.642025,-0.0363104
-38.1445,52.4745,150.497,0.538705,0.0171538,-0.7,0,-0.233799,-0.886406,0.399529
-67.6825,43.922,151.93,0.0337012,-0.395902,-0.7,1,-0.259112,-0.890557,0.373857
-50.541,76.514,145.698,-0.127637,0,3.8,0,-0.726012,-0.0697539,0.684135
-30.0215,39.621,120.71,-0.660413,-0.00460275,3.57256,0,0.851263,0.449095,-0.271415
-54.46,70.148,167.105,-1.24049,0,-3.5,0,0.0250602,0.865079,0.501009
-35.0585,34.561,129.602,-0.57165,0,-3.5,0,0.597739,-0.757374,-0.262854
-75.5755,60.914,155.848,-0.863088,-0.185023,3.8,0,-0.94375,-0.158676,-0.2901
-71.0285,52.5875,154.27,-0.0382085,0,-3.5,0,-0.413742,-0.488309,-0.768357
-34.134,48.5955,100.528,-1.14012,-0.199626,-3.5,1,0.103252,0.949294,0.29695
-45.1805,51.0615,154.098,-0.704652,-0.0457399,1.8,0,-0.0443709,-0.829027,-0.557445
-44.789,52.0945,159.982,-0.0649028,0,-0.451112,0,0.275551,0.0840258,0.957607
-20.0065,43.077,107.339,-0.278124,0,2.8,0,0.728735,-0.103063,-0.676996
-29.0845,51.9868,109.855,0.109682,0,-1.91119,1,0.175736,0.77772,0.603547
-44.36,81.1085,137.947,0.68108,0.0266271,4.26093,0,0.478529,0.835201,-0.271015
-73.695,56.452,160.078,-0.193151,0,1.8,0,-0.273273,0.0729536,0.959166
-32.74,27.585,96.721,0.272346,-0.266741,-1.6,0,0.481204,-0.866819,-0.130641
-44.484,80.851,136.176,0.562874,0.200365,-0.7,0,0.0876697,0.85951,-0.503544
-62.892,58.325,150.89,-0.425676,0,-4.5,1,-0.712827,-0.069666,-0.697871
-30.8225,46.1945,92.829,-1.23268,0,-0.8,0,-0.440487,0.0146735,-0.897639
-40.4565,76.4775,141.036,-0.836294,-0.773603,4.27046,0,0.389128,0.30604,0.868861
-47.2825,34.2505,104.285,0.983802,0.897124,-3.85673,0,0.398204,-0.0997007,-0.911863
-48.498,71.061,141.428,0.599928,0,2.8,1,-0.56597,0.329268,-0.755818
-41.127,31.665,129.205,-0.3515,0,1.9,1,0.369103,-0.899255,0.234739
-40.9945,44.6275,106.947,1.87389,0,-3.5,1,0.199109,0.522644,-0.828975
-76.9925,75.6722,155.066,0.206578,0,-4.5,0,-0.297928,0.336595,-0.893276
-54.146,57.497,139.488,-0.0166055,0,1.8,1,-0.655384,0.480047,0.583119
-75.229,59.948,155.508,-0.402697,0,-3.5,0,-0.983079,-0.0210099,-0.181971
-66.5175,69.543,147.99,-0.0532056,0,-3.5,0,-0.447847,0.732831,-0.512242
-41.149,30.648,103.38,-0.157055,0,-0.7,0,-0.947862,0.283479,0.145594
-33.188,41.24,129.551,0.0579104,0,-3.5,0,0.586021,0.472548,0.658238
-35.819,65.384,137.19,-0.174821,0,3.8,0,0.539485,0.758794,-0.364948
-29.031,27.258,94.6755,0.399964,0.800694,-3.5,0,0.463958,-0.858916,0.216811
-39.5105,66.9305,150.809,-0.549256,0,-0.7,0,0.809224,0.493078,0.319421
-22.319,43.758,117.241,-1.4007,-0.174187,-3.5,0,-0.363034,-0.906903,-0.213853
-47.528,44.272,129.112,-0.0917968,0,-4.5,1,-0.615788,0.608737,0.500244
-43.738,48.3985,125.755,0.0413588,-0.292925,-1.6,1,-0.760819,-0.0677766,-0.645416
-66.037,67.839,146.232,0.258663,0.640429,-3.5,1,-0.0256069,0.553507,-0.832451
-33.05,51.3125,135.876,-0.160533,0,2.8,0,0.683679,0.24327,0.688042
-26.7875,28.162,101.932,0.148837,0,1.8,0,0.830617,-0.555568,-0.0376868
-37.57,65.6055,140.215,-0.280957,0,1.9,0,0.940577,0.250848,-0.22889
-34.597,25.67,105.242,-0.123777,0,-3.2,0,-0.906046,-0.423116,-0.00729487
-37.884,63.0695,136.152,-0.0894576,0,3.8,1,0.0441087,-0.268264,-0.962335
-35.083,50.986,131.939,-0.523588,0,2.8,0,0.0394239,0.418276,-0.907464
-41.9245,60.7145,136.032,0.394234,0,-1.6,1,0.222377,0.264379,-0.938431
-44.924,62.508,167.305,-0.883318,-0,-3.5,0,0.302716,-0.14523,0.941951
-63.968,64.412,165.868,0.526183,0,0.6,0,-0.0205986,-0.0922178,0.995526
-42.508,30.477,106.321,-0.527989,0.00363498,2.14288,0,-0.108779,0.112638,-0.987664
-33.447,29.016,124.426,-0.392451,-0.012353,-3.5,0,0.974777,-0.152994,0.162492
-29.5095,52.624,108.828,0.0809941,0,-3.5,1,0.00491187,0.911097,0.412162
-44.8565,72.7025,154.979,-0.226188,-0.29853,2.34254,0,0.563833,0.67272,-0.479104
-38.891,28.0205,107.467,-0.584368,0,-0.8,0,0.76547,-0.400516,-0.50363
-35.158,36.8025,125.673,-0.740737,-0.0683524,-3.15926,0,0.585694,-0.810531,-0.00149614
-28.408,29.8345,118.826,-0.421669,-0.788937,-3.5,0,0.157559,-0.839431,0.520126
-53.818,37.9025,108.46,0.804102,0.260175,-4.5,0,-0.724625,-0.0100031,0.689071
-67.27,69.9025,163.169,-0.393135,0,-4.5,0,-0.61322,0.451524,0.648141
-49.53,40.0835,109.779,-0.604101,-0.17156,-0.4,1,-0.340444,0.679265,0.650151
-62.532,56.7475,149.263,-0.260059,0,-4.5,1,-0.557477,0.805803,-0.199754
-55.374,57.8195,175.724,-0.998081,-0.0563551,-0.4,0,-0.120722,-0.412451,0.902945
-37.854,56.3965,164.364,-0.84104,-0.042079,-3.5,0,0.410886,-0.387811,0.825091
-21.819,42.214,105.142,0.878399,0.327822,1.9,0,0.802034,0.357692,-0.478328
-18.443,35.0425,109.879,-0.18394,0,-1.52293,0,0.56624,-0.370963,0.736043
-38.087,45.851,141.837,-1.43039,-0.0967713,-3.5,0,0.763695,0.632,0.131709
-63.78,55.404,156.117,-0.330386,0,1.46635,1,-0.549241,-0.117391,-0.827378
-31.8845,22.692,102.999,0.307714,0,-4.5,0,0.32885,-0.553525,-0.765159
-52.2755,79.5295,141.158,-0.838888,-0.0307019,-1.6,0,-0.876605,-0.200133,-0.437618
-52.0805,47.5255,131.382,0.00338248,0,-3.5,1,-0.710282,-0.321469,-0.626225
-50.4275,48.8275,130.781,-0.0679869,-0.5177,-3.5,1,0.137461,0.485327,-0.86346
-45.939,71.498,132.186,0.420664,0,-4.5,1,0.00261228,-0.773227,0.634124
-77.715,68.213,156.094,0.0519402,0,4.2,0,-0.504314,0.863084,0.0274561
-49.7925,34.255,102.304,0.253663,0,-4.5,0,0.208293,-0.469959,-0.85776
-28.207,41.9715,118.293,-0.0547472,0,4.2,0,0.598662,-0.335405,0.727398
-21.4925,46.028,95.285,0.586394,0,-3.5,0,-0.0112697,-0.908888,-0.416887
-51.931,35.0835,102.504,0.599191,0.0710464,-4.5,0,-0.411859,0.0604207,-0.909242
-51.3885,31.4965,104.37,0.567035,0.248844,-4.5,0,-0.530771,-0.783177,-0.323907
-17.202,39.005,107.752,1.11139,0.345169,1.8,0,0.390261,0.920675,0.00735997
-66.499,48.232,159.116,-0.126644,0,-1.6,1,-0.720857,-0.436645,-0.538243
-68.2025,75.1755,158.376,0.133654,0,1.8,0,0.0550976,0.957181,0.284197
-45.295,44.707,107.8,1.11244,0.495141,-4.5,1,-0.73899,0.578996,-0.344467
-36.504,49.2655,98.707,0.0230607,0,-3.5,1,-0.424056,0.768943,0.478439
-74.048,64.483,162.153,0.28936,0,1.9,0,-0.713677,0.644472,0.274447
-19.6115,34.571,105.302,0.250613,-0.599614,-1.54601,0,0.393175,0.32735,-0.859218
-46.9025,47.028,158.676,-0.887997,0,1.9,0,0.720496,0.538098,-0.43742
-43.956,36.189,100.678,1.27425,0.521591,-4.5,0,-0.18352,-0.981606,0.0526406
-40.499,37.357,139.249,-0.528279,0,-0.9,0,0.860668,0.209553,-0.464046
-42.031,58.49,164.293,-0.548904,0,1.9,0,0.37973,0.689909,0.616304
-58.9625,63.058,171.993,-0.0579251,0,-3.5,0,-0.442452,0.437889,0.782617
-19.4705,34.089,112.018,-1.32528,-0.514618,-3.5,0,0.913393,-0.195087,0.357288
-46.985,49.978,162.082,-0.302559,0,4.5,0,0.96469,-0.0991307,-0.24402
-47.662,35.7125,145.934,-0.165192,-0.461774,-0.788588,0,-0.372717,-0.787699,0.490522
-43.71,32.2625,135.436,-0.997898,0,1.9,1,-0.280617,-0.954357,-0.10226
-61.06,55.6825,145.788,-0.015407,0.460266,-4.5,1,0.564677,-0.0283265,-0.824826
-33.867,73.6,140.374,-1.41217,-0,4.2,0,0.01663,0.956267,0.292021
-47.8055,48.732,156.434,-1.61685,-0.163082,1.8,0,0.589087,-0.77747,0.220263
-40.463,49.1457,148.069,0.37918,0,-0.8,0,0.337316,0.322025,0.884601
-32.6997,50.606,133.99,-0.32006,0,2.8,0,0.981324,-0.00765667,-0.192207
-69.1985,74.3087,154.598,1.04008,0,-3.5,0,-0.0613932,0.998113,-0.00148374
-37.6808,62.3345,141.912,1.06539,0.255306,1.92639,0,0.963674,-0.0110444,-0.266853
-47.6598,43.497,120.095,0.559502,0,2.8,1,-0.627083,0.772775,-0.097905
-38.8705,69.8935,145.188,-1.51092,0.0379634,-3.2,0,0.637694,0.380717,0.669628
-43.4795,33.405,139.933,-0.189017,0,-0.9,1,0.0298656,-0.930985,-0.363833
-34.8988,44.2265,92.1935,-0.127431,0,-3.5,0,0.597203,-0.111349,-0.794324
-65.988,66.758,165.717,1.24404,0.471852,1.9,0,-0.816938,-0.197682,0.541788
-42.7323,74.5492,155.441,0.444855,0.904892,4.5,0,-0.28403,0.773555,-0.566516
-58.7637,43.775,145.807,-0.856705,0,-3.5,1,-0.580895,-0.478161,-0.658729
-40.6875,33.8913,130.97,0.0816343,0,1.9,1,0.684719,-0.318056,0.655744
-60.891,71.098,156.126,0.533853,0,-4.5,0,-0.886826,-0.238021,-0.396088
-50.465,73.4505,145.973,-0.639749,0,-3.82741,0,-0.996198,0.0774416,0.0399091
-22.8835,42.2573,98.9847,1.32837,0,1.9,0,0.916595,-0.39319,-0.072501
-54.24,52.823,147.409,-1.86565,-0.0214335,3.47929,1,-0.464725,0.800688,-0.378059
-72.0407,71.5683,150.96,-1.46225,-0.467165,-3.5,0,-0.764401,-0.0460586,-0.643094
-54.202,58.738,143.974,-1.81463,-0.784822,-0.8,1,-0.877081,0.266765,-0.399456
-23.132,46.534,125.718,-1.44129,-0.100114,-3.5,0,-0.451065,-0.262031,0.853159
-49.153,81.374,147.147,0.125447,0,-1.6,0,-0.517184,-0.781055,0.349962
-31.1835,41.8968,126.232,-0.0940004,0,-4.5,0,0.222161,0.479552,0.848925
-49.2052,36.854,103.543,1.08402,0.0113387,-4.5,0,0.432589,0.849518,-0.301972
-71.3345,74.6133,156.142,0.367139,0,1.14508,0,0.0377134,0.980425,0.193247
-33.4577,30.3135,125.512,0.153783,0.794151,-3.5,0,0.70612,0.56535,0.426349
-27.4665,30.031,118.488,-0.180938,-0.141469,-3.5,0,0.427903,-0.825874,0.367193
-65.8515,70.125,164.723,0.109975,0,-0.7,0,-0.715987,0.600165,0.356602
-32.7018,32.1451,124.16,-0.148891,0,-3.5,0,-0.352031,-0.158228,0.922517
-27.4538,30.7157,95.369,0.184078,0,1.8,0,0.551255,-0.793058,-0.259184
-53.2863,58.2137,140.675,-0.981807,-0.0371611,-0.78071,1,-0.918235,0.362179,0.16022
-61.3553,69.119,153.526,-0.374848,0,3.84496,0,-0.390353,0.813247,0.43157
-48.4415,36.1548,118.273,0.365121,0,4.5,0,-0.873218,-0.468259,0.135
-18.763,39.698,108.85,0.248097,0,-4.5,0,0.733634,0.675739,-0.0718266
-25.912,37.1625,96.056,-0.238627,-0.0192736,-3.5,0,0.376091,-0.502167,-0.778707
-44.3418,77.131,134.045,0.528291,0,1.8,0,0.0962323,0.166549,-0.981326
-55.229,54.0342,148.544,-1.17487,-0.459867,-0.309819,1,-0.505029,0.202774,-0.838945
-35.1199,53.8778,146.443,-0.100906,-0.0847842,-0.7,0,0.893876,0.382693,-0.233521
-51.1155,48.0045,130.733,-0.224496,-0.161425,-3.5,1,-0.347662,-0.0211587,-0.937381
-47.9235,35.0605,145.172,-0.202703,0,-0.7,0,-0.336414,-0.66892,0.662851
-34.0275,28.2385,126.433,-0.579596,-0.175046,-3.5,0,0.569098,-0.0736525,0.818965
-39.0905,26.8025,123.905,-1.38971,-0.588165,-3.5,0,-0.363425,-0.602797,0.710323
-64.3405,56.9785,172.758,-0.375522,-0.0183053,-3.5,0,-0.79935,-0.0895128,0.594161
-51.474,51.609,136.689,1.02576,0.361541,0.8669,1,-0.176675,-0.334023,-0.925859
-49.576,39.598,125.854,0.384032,0,-4.5,1,-0.30887,-0.903459,0.297256
-71.9275,51.086,159.787,-1.38325,-0.799405,-3.5,0,-0.465169,-0.6618,-0.587911
-48.829,50.2445,133.611,0.393844,0,3.8,1,-0.136327,0.319933,-0.937581
-29.507,40.591,92.176,-0.0245139,0,-3.5,0,-0.0717363,0.233468,-0.969715
-40.5807,46.033,130.333,-0.156389,0,-1.6,0,0.863278,-0.057067,0.501492
-55.3225,77.7355,156.409,-0.368969,0,3.8,0,-0.536636,0.827603,-0.164607
-33.5868,50.6995,148.189,-0.292938,0,-0.7,0,0.950868,-0.23178,-0.205251
-62.276,54.3475,154.408,-0.137181,-0.034423,-0.7,1,-0.775342,-0.0465032,-0.629827
-25.0506,51.9398,98.3164,0.3791,0,-0.4,1,-0.128311,0.978845,0.159371
-32.759,36.5653,126.311,-0.457847,-0.375807,-4.5,0,-0.328961,-0.894831,0.301766
-36.523,49.9455,138.133,-0.299898,0,2.8,0,0.365165,-0.0744579,0.92796
-48.6065,46.0778,156.088,0.0394392,0.27821,-0.127809,0,0.793741,0.605352,0.0593678
-22.288,43.417,104.983,0.182573,0,2.8,0,0.78675,0.371646,-0.492853
-43.1748,29.677,120.213,0.107193,-0.171079,-3.43946,0,-0.564886,-0.81597,-0.122868
-63.585,52.516,152.811,0.987913,0.338455,-0.7,0,-0.0470631,0.96906,-0.242296
-47.2416,66.7544,139.489,0.292993,0,-0.8,1,0.250279,0.257105,-0.933412
-67.0462,53.7545,155.657,-0.585942,0,4.35376,0,0.294936,0.681748,-0.669502
-43.257,45.3768,111.338,0.166037,0,-4.5,1,0.127199,0.990472,-0.05278
-21.627,37.024,102.753,0.408183,0,1.9,0,0.577131,0.102585,-0.810183
-48.868,35.728,136.962,-0.127877,0,-0.4,1,-0.941734,-0.189121,0.278154
-57.6353,78.2994,158.723,0.21813,0,3.8,0,-0.378517,0.908088,-0.179165
-33.643,46.859,126.27,-0.067738,0,3.8,0,-0.626645,-0.66188,0.411378
-52.2412,68.3802,166.424,-0.864437,-0.0564559,-3.5,0,0.723103,0.603535,0.335958
-57.5488,51.4955,146.007,-2.41958,-0.0509434,-3.5,1,-0.24858,0.561437,-0.789301
-43.5692,43.8623,149.439,0.234511,0,-4.5,0,0.700724,-0.583344,0.410726
-36.9025,46.4053,92.7913,-0.107714,0,-3.5,0,-0.410002,0.874259,0.259942
-45.609,57.136,137.677,0.0853325,0,4.5,1,0.0648715,0.0767239,-0.99494
-70.5038,67.9245,152.04,0.0533946,0,4.5,1,0.210952,-0.656118,-0.724574
-67.874,45.8705,152.682,-0.483095,-0.971776,-0.7,0,-0.561933,0.20777,0.800664
-71.3158,57.217,150.855,-1.27484,0,-3.5,1,0.205047,0.358037,-0.910914
-39.9315,69.45,146.545,-0.476259,0,-3.2,0,0.695016,0.0877158,0.713624
-66.4635,48.6595,153.391,0.697523,0.228762,-0.7,0,-0.975473,0.00925685,0.219926
-41.021,76.7835,143.996,-0.580488,0.897463,-3.2,0,0.925362,0.263548,-0.272485
-46.6732,48.8218,164.033,-0.105524,0,4.5,0,0.951323,-0.279423,-0.13003
-42.6615,35.8715,101.146,1.52017,0.801822,-4.5,0,-0.520039,-0.853664,-0.0285848
-32.4987,50.2095,112.261,-0.941038,-0.328708,2.5,1,-0.321904,0.880919,0.346929
-28.0292,37.178,128.262,-1.17369,-0.678544,-0.4,0,0.93637,-0.00822353,0.350917
-25.1025,51.869,95.6665,0.366793,0,-0.4,1,0.221472,0.793592,-0.566711
-41.64,80.037,134.395,0.138819,0,1.8,0,0.666999,0.509103,-0.543991
-41.462,24.008,116.302,-0.190596,0,-0.4,0,-0.795994,-0.202618,0.570385
-39.343,46.6225,145.199,-1.66748,-0.0955675,-3.5,0,0.940453,0.0427468,-0.337226
-28.2,31.4165,112.504,-0.974899,-0.100924,-3.5,0,0.880089,0.447584,-0.15847
-34.89,34.6215,130.924,-1.20305,0,-3.5,0,0.86777,-0.47265,-0.153546
-66.467,49.682,154.889,-0.145168,0,-0.7,1,-0.857895,-0.286237,0.426714
-52.465,45.298,136.479,-0.862206,-0,-3.5,1,-0.965156,-0.227218,0.129794
-39.2435,42.2697,142.178,-0.650675,0,-3.5,0,0.36491,-0.881612,-0.299335
-62.938,55.2463,173.525,0.268444,0.688347,-3.5,0,0.165517,-0.628321,0.760143
-37.832,68.003,163.589,0.0337852,0,-1.6,0,-0.548229,0.423587,0.721124
-39.205,46.467,141.616,-1.06109,-0.155801,-3.5,0,0.767079,0.612103,0.192146
-74.208,59.1185,158.602,-0.160982,0,1.8,0,-0.81718,0.474609,0.327052
-34.5245,74.6507,153.717,-0.0213873,0,-0.4,0,0.870593,0.297504,-0.391867
-54.022,49.282,169.011,-0.520461,-0.72714,-0.4,0,0.164713,-0.700388,0.694497
-69.2538,51.6502,163.872,-0.637224,0,-3.09156,0,-0.297526,-0.67634,0.673827
-28.8848,37.417,129.39,-1.21248,-0.254075,-0.4,0,0.498847,0.0154628,0.866552
-73.9945,62.62,162.633,0.191591,0,1.9,0,-0.723629,-0.144122,0.674974
-44.3235,32.4053,126.618,-0.389071,0,1.9,0,-0.653251,-0.631248,0.418078
-27.604,31.1052,109.57,0.23807,0,4.2,0,0.70693,-0.435405,0.55738
-32.314,28.1497,121.472,0.912824,0.794813,-3.5,0,0.336106,-0.941242,0.0330986
-27.3625,49.4035,121.032,-1.47696,0,-0.7,1,-0.22054,0.731089,-0.645656
-28.8195,37.0938,94.0297,0.735717,0.0258989,-3.5,0,0.841934,0.18666,-0.506266
-45.7525,46.1105,161.842,0.0711595,0,1.9,0,0.791616,0.396508,0.464893
-55.255,45.6925,163.977,0.635309,0.0200486,1.37134,0,0.414597,-0.909933,-0.0114807
-58.843,57.336,172.649,0.169885,0,-0.4,0,-0.679908,-0.390482,0.620684
-27.457,37.1987,117.58,0.117038,0,4.5,0,0.910188,-0.406872,0.0775372
-62.824,62.8047,167.082,-0.165203,0,4.5,0,-0.746294,0.207037,0.632598
-37.3392,52.344,137.924,0.787073,0.818482,2.8,0,0.578943,0.0579623,0.813306
-29.338,37.2425,91.6885,0.11881,0,-3.5,0,0.899108,0.166019,-0.405022
-66.593,71.858,162.489,-0.371563,-0,-4.5,0,-0.57078,0.187613,0.799382
-39.128,71.939,131.805,0.853515,0,-4.5,0,-0.295065,-0.353383,-0.887726
-40.1055,40.6872,95.7122,-2.18219,-0.710741,-3.5,0,-0.534205,-0.743267,-0.402715
-42.5405,28.136,116.701,-0.124729,0,4.2,0,-0.846693,-0.331628,0.416095
-36.7567,45.7275,94.9413,-0.445372,0,-3.5,0,-0.759235,0.635671,-0.139586
-35.19,68.211,138.97,-1.36679,-0.376937,-1.3,0,0.337015,-0.662074,-0.669387
-48.7446,44.1851,122.977,0.875213,0.224067,-4.5,1,0.203863,0.798171,-0.566889
-57.5075,66.487,145.316,-0.0717502,0,-0.7,1,-0.355297,-0.692687,-0.627653
-73.512,74.1022,158.616,0.191274,0,-4.5,0,0.0208808,0.3959,0.918056
-57.729,53.5455,172.348,0.75461,0.0120279,-4.5,0,-0.134306,0.612794,0.778746
-44.857,44.3615,123.394,0.429383,0,2.8,1,0.120283,0.963484,0.23923
-41.2035,61.5075,136.113,0.115885,0,-1.6,1,0.175852,0.148367,-0.973172
-41.8927,74.1143,147.597,0.143142,0,-3.2,0,0.795158,-0.594618,0.118967
-50.4733,36.708,115.168,0.241213,-0.0177346,4.5,0,-0.928889,-0.365279,0.0611321
-37.9605,47.5,96.7305,0.0450174,0,-3.5,1,-0.871207,0.361445,-0.332198
-60.2122,58.9287,171.661,-0.957918,0,-3.5,0,-0.257629,0.375094,0.890467
-40.843,46.9268,135.798,-0.68562,0,-1.6,0,0.884151,-0.426107,-0.191599
-63.0876,55.3194,155.299,-0.820942,-0.281441,-0.7,1,-0.82017,-0.0802338,-0.566466
-65.643,47.7535,156.747,-1.5072,-0.0604353,2.8,1,-0.937403,-0.214948,0.273994
-41.2238,44.5005,98.7807,-0.0176988,0,-3.5,1,-0.869397,0.328546,0.369061
-52.1063,66.3824,143.202,0.285452,0,-4.5,1,-0.305216,0.45796,-0.834935
-39.991,20.8125,112.739,-0.108197,0,-0.4,0,0.122083,-0.980697,0.152739
-44.0073,32.1768,133.311,-0.505636,0,1.9,1,0.250216,-0.754382,0.606878
-27.7665,35.74,113.215,0.354227,0,1.8,0,0.521509,-0.742816,0.419826
-43.943,40.601,136.081,-0.0821645,0,-3.5,1,-0.906112,0.274918,-0.32153
-27.643,44.9492,116.106,-0.201119,0,4.2,0,0.934205,-0.35297,0.0516948
-47.997,36.6825,129.307,0.350927,0,1.00488,1,-0.957173,0.160724,-0.240806
-22.076,47.804,116.402,-0.256036,0,-3.5,1,0.531007,0.398609,-0.747758
-50.5985,40.9005,117.282,0.239963,0,4.5,1,-0.625132,0.500592,0.598846
-17.776,50.682,95.684,-0.954932,-0.405048,-3.5,1,0.641456,0.70009,-0.313701
-76.8695,63.309,153.639,-0.132683,0,4.2,0,-0.23054,-0.61562,-0.753567
-39.4518,70.7162,152.146,-0.167203,0,4.2,0,0.683456,-0.725989,-0.0763404
-57.528,48.2025,144.952,0.0834834,0.798125,-1.42071,1,-0.740428,-0.242515,-0.626859
-19.3587,38.5384,105.466,-0.795574,-0.0153234,1.9,0,0.596029,-0.17843,-0.782887
-35.728,25.2045,122.846,-0.191264,0,-3.5,0,0.377749,-0.923617,-0.0650935
-40.1505,38.3015,140.48,-0.0498121,0.176939,-0.9,0,0.690538,0.640895,-0.335277
-58.1405,62.5835,172.333,0.0159321,0,-3.5,0,-0.256204,0.245365,0.934963
-61.1372,75.2292,157.044,1.30317,0.142268,-4.5,0,-0.775825,0.284772,-0.563028
-52.857,61.252,137.661,-0.037558,0,2.8,1,-0.998324,-0.051748,-0.0258954
-45.732,74.7775,164.542,-1.85427,-0.292474,-3.5,0,-0.239142,0.466026,0.85184
-61.4548,60.6357,169.53,-0.253616,0,-3.5,0,-0.685494,0.586837,0.430954
-74.5762,73.1862,153.859,0.191724,0,-4.5,0,-0.466242,-0.211906,-0.858903
-66.894,47.4395,153.26,0.112812,0.514438,-0.7,0,-0.819107,-0.0583588,0.570664
-66.1475,63.27,150.371,-0.437075,0,-0.7,1,-0.543221,-0.114261,-0.831779
-34.8548,53.6408,132.335,-0.275747,0,4.5,1,0.488921,-0.130053,-0.862579
-55.9125,56.8315,141.835,-2.08267,-0.785748,-3.5,1,-0.674023,0.737409,0.0438339
-35.5435,63.1245,144.044,-0.998518,-0.176471,-3.5,0,0.75646,-0.0705186,-0.650227
-40.4349,50.2189,124.649,0.0194997,0,-1.3,1,-0.0711651,0.643175,-0.762405
-23.873,47.461,92.8065,0.290275,0,-3.5,1,0.701094,-0.0931498,-0.706958
-35.3215,71.2288,157.366,0.110384,0,-3.2,0,0.92633,-0.247071,-0.284375
-65.3412,69.48,154.99,-0.703038,0,3.8,0,0.28815,0.70671,0.646166
-39.1085,58.197,136.378,-1.26822,-0.00761187,-1.6,0,0.157293,0.324146,-0.932839
-34.7225,48.121,132.898,-0.679848,0,2.8,0,0.259694,-0.946993,-0.189114
-51.075,72.681,160.9,-0.205459,0,-2.95237,0,0.599905,0.346067,0.721354
-29.266,26.475,99.059,-0.815786,-0.832458,-0.4,0,0.0743417,-0.891953,-0.445974
-42.0066,52.316,159.71,-0.782267,-0.0120066,-0.4,0,0.195452,-0.102274,0.975366
-57.7805,42.0418,157.663,0.0582712,0,-0.7,1,-0.0953605,-0.662548,-0.742924
-36.4255,54.8135,142.66,-0.132489,0,-1.6,0,0.814161,-0.527841,-0.241921
-69.4875,49.964,160.79,-1.65335,-0.178647,-3.5,0,0.223249,-0.690629,-0.687889
-40.4345,34.0395,94.589,0.0718918,-0.215228,1.8,0,-0.0425011,-0.288797,-0.956446
-18.262,35.898,110.97,0.0646849,0,-4.5,0,0.687718,-0.588562,0.425016
-21.54,51.563,95.873,-0.533125,-0,-3.5,1,0.152011,0.663681,-0.732407
-52.1025,67.082,168.724,0.936404,0,-4.5,0,0.258775,0.809299,0.527324
-23.1235,47.191,93.45,-0.0889559,0,-3.5,1,0.674257,-0.0355015,-0.737643
-57.4058,41.0415,143.515,0.346437,0.759977,-4.5,1,-0.167496,-0.766444,0.620087
-42.464,32.2492,136.976,-0.33142,0,1.9,1,-0.0844438,-0.938724,0.334166
-18.2235,37.663,112.862,0.652061,0,-4.5,0,0.895291,-0.0121171,0.445318
-32.663,44.305,126.316,-0.0921961,0.825867,-3.5,0,-0.935005,0.345057,0.0818655
-44.459,38.3825,145.025,-0.633121,-0.0643131,-0.790564,0,0.973116,-0.149633,-0.175088
-47.741,29.301,110.137,0.438368,0,1.9,0,-0.780809,-0.419597,-0.462899
-55.138,40.7253,145.813,-0.351182,0,1.26216,1,-0.562156,-0.7268,-0.394642
-41.4435,52.855,127.451,0.060687,0,-1.3,1,-0.739484,0.487101,-0.464647
-34.545,56.97,152.557,-1.12553,-0.633567,-3.5,0,0.798661,-0.598483,0.0629162
-42.5807,43.8465,122.72,0.168742,0,2.8,1,0.514605,0.827596,0.224205
-67.0342,50.5552,164.811,-0.317727,0,4.5,0,-0.513573,-0.858036,0.00404106
-65.552,48.762,165.318,-1.82097,-0.559483,-3.5,0,-0.877284,-0.47597,0.0618518
-50.2525,74.6455,149.158,-1.56272,-0.0463845,-3.5,0,-0.334534,0.827353,0.451192
-63.5843,44.4855,169.349,-1.44107,-0.856243,-3.5,0,-0.579494,-0.806536,-0.116986
-56.32,59.343,175.112,-0.571874,-0.796726,-0.4,0,-0.299449,0.117667,0.946829
-64.5795,62.6222,150.684,-0.835621,-0.014492,1.74496,1,-0.104156,-0.518747,-0.848559
-27.2173,48.0807,108.629,-0.294274,-0.528431,-3.5,1,0.833142,-0.384788,-0.397257
-40.6995,53.893,156.178,-0.239057,0,4.5,0,0.746854,-0.657908,-0.0967769
-51.686,40.364,153.765,-1.18081,-0.0147518,-3.5,0,0.398888,-0.803812,0.441333
-39.5685,80.99,144.145,-1.12293,0,1.9,0,0.987811,0.0685947,-0.139731
-18.6015,46.2188,118.186,-1.49913,-0.192867,-3.5,0,0.993498,0.112145,-0.01961
-25.255,31.202,117.513,0.0341213,0,-3.5,0,0.928516,-0.338747,-0.152017
-33.9845,65.547,163.839,-0.0390091,0,-1.6,0,0.922806,0.0263908,0.384361
-47.6235,24.822,111.991,-0.0255563,0,4.2,0,-0.935721,-0.120233,0.331618
-80.1395,74.5,157.439,0.706414,0.675249,-4.5,0,-0.968327,0.00892213,0.249525
-38.0392,54.8493,133.044,-0.182467,0,4.5,1,-0.539712,0.549482,-0.637793
-40.721,38.51,137.318,-1.49189,-0,1.9,0,0.920359,-0.226021,0.319144
-43.3595,23.4255,108.891,0.114483,0,2.21967,0,0.0119118,-0.726562,-0.686997
-37.0148,47.6432,114.818,-0.950369,-0.0176895,1.73663,1,-0.0637042,0.786302,-0.614549
-32.764,51.8045,107.11,-0.00378833,0,-1.6,1,-0.383689,0.558299,-0.735585
-64.9548,48.4958,166.699,-0.580168,-0.751701,-3.5,0,-0.96039,-0.266414,0.0816986
-37.7192,57.987,161.79,0.00573399,0,-3.5,0,0.979964,0.138444,-0.143188
-61.6355,67.3018,148.51,-0.319486,0,4.2,0,-0.304972,0.316872,-0.8981
-76.3535,64.33,153.027,-0.127779,0,4.2,1,-0.0558769,-0.238712,-0.969482
-66.326,71.209,155.146,0.26217,0,-3.5,0,0.881842,0.235524,0.408514
-42.8442,28.1585,121.579,-1.41516,-0.810592,-3.5,0,-0.946196,-0.278234,-0.165224
-38.9067,47.0905,127.26,0.328983,0.13924,-1.3,0,0.374726,-0.558828,0.739791
-63.753,61.18,166.203,-0.0488139,0,4.5,0,-0.597992,0.057145,0.799462
-34.79,54.729,150.006,-1.21331,-0,-0.7,0,0.923188,-0.0884449,0.374034
-36.367,53.6973,131.889,-0.287211,0,4.5,1,0.212992,-0.0134947,-0.976961
-46.192,78.9665,135.033,1.02825,0.810288,1.42045,0,-0.0202084,0.434084,-0.900646
-24.0455,39.7417,113.96,0.287678,0.311495,-4.5,0,-0.455515,0.147793,0.877874
-55.883,49.8075,141.742,-1.10344,0,-1.3,1,-0.878861,0.467756,0.0938526
-34.1165,24.1565,107.438,-0.816443,0,-3.2,0,-0.508841,-0.828523,0.23373
-48.241,31.3135,118.563,0.122665,0,1.8,0,-0.798295,-0.433079,-0.418529
-22.5252,49.0448,103.195,0.431459,0.477295,-4.5,1,0.90879,0.044571,0.414867
-56.0655,62.558,173.02,-0.544095,-0.167939,-3.5,0,-0.68032,0.330264,0.654287
-38.9857,56.2375,135.398,-0.417019,0,4.5,1,-0.207327,0.790525,-0.576268
-47.099,48.618,153.738,-0.468162,0,3.8,0,0.939159,0.0879434,0.332034
-34.909,67.372,142.935,-0.770279,0,4.2,0,0.31559,-0.909313,-0.271206
-17.7265,36.6595,111.567,0.160183,0,-4.5,0,0.85263,-0.355714,0.382739
-26.997,45.294,106.945,-0.497668,-0,-4.5,1,0.61249,0.682765,0.398356
-29.9573,40.4883,118.354,-0.191694,0,3.89298,0,0.610396,0.0600205,0.789819
-51.8843,41.67,156.555,0.839048,0.264727,-3.5,0,0.474513,-0.876575,0.080336
-31.8765,69.8938,139.279,-0.407831,0,4.2,0,0.479244,-0.101644,-0.871776
-57.9437,47.7287,137.353,0.0869155,0,-1.6,1,-0.632936,-0.333488,-0.698697
-31.04,25.934,100.627,0.155172,0,-3.2,0,0.396164,-0.862698,-0.314335
-37.8223,69.8832,133.971,0.0575233,0,-4.5,0,-0.16953,-0.971717,-0.164395
-26.4032,49.1027,108.231,0.363265,0,-3.5,1,0.694999,-0.675699,-0.245779
-46.3465,81.5565,136.378,0.668559,0.0498287,-0.7,0,0.438707,0.659501,-0.610405
-46.6415,43.1345,137.703,0.0189563,0,-3.71273,1,-0.400825,-0.62332,-0.671425
-37.592,47.852,128.876,-0.177608,0,-1.3,0,0.177068,-0.924763,0.336839
-71.801,69.5192,160.023,0.0390031,0,-4.5,0,-0.400126,0.621918,0.67314
-40.9618,47.1502,115.301,-1.11389,-0.0268648,-3.5,1,-0.247661,0.761182,-0.599388
-41.23,32.209,102.061,-1.45526,-0.447346,4.2,0,-0.968295,-0.0769643,-0.23766
-50.9432,63.9827,174.977,-0.162426,0,3.8,0,0.678949,0.718583,-0.150556
-55.199,49.0747,168.511,0.74694,-0.109849,-0.8767,0,0.261774,-0.810629,0.523789
-68.9495,53.1152,164.49,-0.444539,-0.0179451,3.50277,0,-0.528199,0.300849,0.794038
-44.6917,37.7855,144.049,-0.442083,-0.0398225,-0.794454,0,0.963018,0.259999,0.0706887
-48.2335,78.647,135.487,1.07499,0,-0.7,0,-0.570219,0.235848,-0.786909
-59.4652,56.7015,148.635,-0.226963,0.236368,-4.5,1,0.399351,0.633995,-0.662246
-61.3525,46.6447,162.499,0.189775,0.0388699,3.97558,1,-0.567571,-0.742564,-0.355614
-55.707,50.7575,173.296,0.512399,0.0749442,-4.5,0,0.522636,-0.374743,0.76578
-42.657,44.058,121.603,0.0261653,0,2.8,1,0.504511,0.852924,0.134125
-51.975,40.16,122.504,0.707923,0.640547,-4.5,1,-0.630294,-0.706177,-0.322557
-51.433,41.0145,154.598,-0.669032,0,-3.5,0,0.570769,-0.700308,0.42871
-34.6143,24.6187,104.949,-0.0944454,0,-4.5,0,-0.961592,0.0222547,0.27358
-61.873,52.9615,147.936,-0.473718,0,-4.5,1,0.598582,-0.640368,-0.481278
-78.1245,72.175,156.53,1.01605,0.749175,-4.5,0,-0.148727,-0.980558,0.128008
-20.8445,46.004,125.847,-1.80777,-0.627299,-3.5,0,0.655347,-0.331513,0.67869
-75.6888,75.2927,154.009,0.411183,0,-4.5,0,-0.262575,0.284409,-0.922044
-32.523,50.868,125.99,-0.288376,0,3.8,1,0.690366,0.659524,0.297359
-49.1335,81.587,148.275,0.0666262,0,-1.6,0,-0.558467,-0.641769,0.525592
-21.3515,34.212,102.898,-0.133221,0.288868,-3.5,0,0.892306,0.0307036,-0.450387
-41.4087,80.2115,142.547,-0.564451,0,1.9,0,0.707801,-0.415583,-0.571235
-52.554,39.485,150.406,-0.21555,0,-0.7,0,-0.820036,-0.566436,0.0818037
-37.896,49.566,146.622,0.0275266,0,-0.7,0,0.0349339,-0.654455,-0.755293
-57.6628,60.563,144.822,-2.19525,-0.523365,-3.5,1,-0.327498,-0.370016,-0.869387
-42.068,68.082,163.96,-0.76654,-0.0105487,-1.26264,0,0.740235,-0.388278,0.5489
-44.7632,76.795,158.042,-0.152738,0,1.8,0,-0.449597,0.850499,-0.272973
-69.394,73.579,151.141,-1.19016,-0.477948,-3.5,0,0.308079,0.585763,-0.749646
-41.993,79.5523,139.32,0.151459,0,4.5,0,0.776612,0.456644,-0.433994
-47.8625,30.3538,109.797,0.605837,0,1.9,0,-0.879398,-0.126733,-0.458909
-42.2827,75.6728,161.738,-0.0123503,0,-1.6,0,-0.154531,0.982141,0.107327
-63.6263,50.5285,146.6,-0.353216,0,-3.5,1,0.365455,0.250823,-0.896398
-56.0602,64.1438,172.538,-0.212273,-0.458747,-3.501,0,-0.527913,0.303523,0.79321
-55.456,73.035,164.929,-0.273505,-0.157229,1.8,0,0.496016,-0.378965,0.781251
-38.3722,30.0915,125.349,-1.01355,-0.185238,-3.5,0,-0.011273,0.176085,0.98431
-37.8745,39.4615,135.048,-2.20009,-0.180048,-3.5,0,0.307412,-0.923714,0.228581
-36.758,50.6841,120.168,0.240195,0,-1.6,1,-0.77905,0.584736,0.226196
-45.809,43.4015,136.278,0.541375,0.136224,-2.97314,1,-0.784053,-0.618902,-0.0471313
-30.2525,30.9205,90.0163,0.1053,0,-3.5,0,0.274431,0.0890835,-0.957471
-40.6865,28.0625,125.004,-0.48709,0,-3.5,0,-0.0238818,-0.463642,0.8857
-40.62,74.0488,132.869,0.496599,0,-4.5,0,-0.302036,0.737884,-0.603574
-75.324,65.9798,157.696,0.176665,0,4.2,0,0.035253,0.0882519,0.995474
-44.7993,85.3497,148.087,0.448477,0,-1.6,0,0.704771,0.708258,-0.040859
-45.5869,84.0687,150.135,0.221991,0,-1.6,0,0.377053,-0.0411687,0.925276
-41.491,40.412,101.508,0.501603,0,-4.5,1,-0.807569,0.571553,-0.145464
-71.746,52.065,159.18,-0.965526,0.0248079,-3.5,0,-0.710825,-0.319447,-0.626643
-72.2945,64.1152,163.159,0.723459,0,1.9,0,0.100123,0.580192,0.808302
-43.8618,29.0678,104.663,-1.26894,-0.256071,-3.5,0,-0.532946,0.720623,-0.443476
-52.1814,85.583,141.307,0.556349,0,-1.6,0,-0.46716,0.883995,0.0177338
-47.256,73.3365,140.343,0.235738,0,1.8,0,-0.886174,0.0920412,-0.454119
-33.104,48.156,97.5328,0.095443,0,0.0106558,1,0.384639,0.846574,0.36792
-41.305,45.083,136.224,-1.80339,-0.987281,-3.9,0,0.93738,0.102771,0.332801
-58.0055,68.451,169.223,-0.200979,0,-0.4,0,0.100019,0.96189,0.254487
-59.5493,49.0252,146.882,-0.683259,0,-3.5,1,-0.666933,0.181839,-0.722589
-46.8505,76.2415,146.996,0.469933,0.244514,-3.35038,0,-0.247751,0.789787,0.56112
-27.7197,44.3418,120.531,-0.163843,0,-0.7,0,0.726591,-0.621719,-0.292457
-27.361,28.5815,98.3905,-0.476058,-0.88274,1.68572,0,0.782277,-0.618009,-0.0781518
-28.3867,42.302,125.961,-0.41509,0,-4.5,0,0.395102,-0.244752,0.885433
-26.8498,32.4977,94.4235,0.0484043,0,1.8,0,0.751412,-0.039126,-0.658673
-58.6522,51.439,149.055,-1.57721,0,-2.81512,1,-0.972473,0.126515,-0.195678
-42.6865,72.5895,147.516,-0.0127739,-0.603018,-3.2,0,0.966364,0.0633785,0.249246
-38.7715,50.5935,132.822,-0.664546,-0.434797,-1.3,0,-0.986485,-0.150918,0.0638064
-57.3585,60.3425,150.132,-1.2332,0,-3.13853,1,-0.962418,-0.213595,-0.167715
-73.7115,60.2775,158.867,-0.249167,0,2.60894,0,-0.961418,0.0780036,0.263802
-39.4675,62.318,136.502,-0.0536481,0,3.8,1,-0.0593587,-0.313522,-0.947724
-61.4372,44.0462,164.959,0.299869,-0.0262078,-1.6,1,-0.277287,-0.705951,-0.651724
-48.862,43.3353,137.365,-0.0635216,0,-3.5,1,0.189074,-0.899908,-0.392958
-59.5088,65.5208,170.182,0.108468,0,-0.4,0,-0.813625,0.0523131,0.579031
-60.232,42.2815,148.9,0.0318898,0,-3.5,1,-0.364631,-0.865492,0.343464
-48.569,41.2393,128.751,1.33094,0.0763082,-4.5,1,-0.879022,-0.467645,-0.0928843
-16.766,33.117,104.284,0.208055,0.0228595,1.8,0,0.291514,-0.0403098,-0.955717
-41.8893,64.3865,168.405,-0.121359,0,-0.7,0,0.687388,-0.413472,0.597108
-55.483,56.6465,143.739,-2.16956,-0.671894,-3.5,1,-0.864832,0.273237,0.421196
-40.654,53.4205,152.474,-0.495924,0,-0.7,0,-0.121733,-0.944548,0.304977
-51.5592,41.6222,155.4,-0.264476,0,-3.5,0,0.617749,-0.700804,0.356736
-50.821,46.9085,164.323,0.0972638,0,4.15534,0,0.666731,-0.621814,0.410873
-27.4608,37.6475,114.748,0.112671,0,4.26735,0,0.756302,-0.61453,0.224412
-46.9323,39.3935,148.919,-0.210105,0,-0.8,0,0.530917,0.123257,0.838412
-53.0245,71.4285,150.603,-0.406121,0,-1.42329,0,-0.212252,0.975894,-0.0507992
-52.5505,80.7387,142.958,0.0917599,0,-1.6,0,-0.661414,-0.358209,0.658952
-35.5863,57.5025,142.099,-0.0237526,0,-1.6,0,0.943453,-0.302676,-0.13522
-42.6565,82.9865,147.277,0.198168,0,1.9,0,0.398119,0.861934,0.31396
-32.389,27.7178,94.5348,-0.0670808,0.289336,-2.56508,0,-0.147693,-0.988544,-0.0311109
-44.5122,46.2632,115.351,0.508183,0.109205,-3.5,1,-0.917768,0.270677,0.290577
-62.8495,45.2262,168.087,-0.991877,0,-3.41127,0,-0.481186,-0.80888,-0.337895
-28.7857,40.2378,118.12,-0.0493372,0,4.5,0,0.312556,0.440212,0.841738
-73.1035,58.5518,160.427,-0.0263009,0,1.89723,0,-0.669745,-0.248823,0.699664
-63.973,63.6183,149.606,-1.87161,-0.0320254,1.8,1,-0.22757,-0.557602,-0.798305
-39.3035,41.676,129.188,-0.415945,0,-1.32794,0,0.604696,0.380373,0.699756
-67.608,54.832,165.237,-0.579339,-0.70863,-3.5,0,-0.792739,0.163666,0.587178
-49.8415,57.3192,134.043,0.0476462,0,-0.7,1,-0.466776,0.754183,-0.461874
-61.955,77.67,164.038,0.139573,0,-0.8,0,-0.5475,0.506347,0.666225
-48.792,36.368,102.524,1.01465,0.312896,-4.5,0,0.621039,0.48671,-0.614348
-38.5317,46.402,97.4597,0.0728273,0,-3.5,1,-0.659615,0.720212,-0.214947
-60.059,49.993,148.785,-0.753575,-0.0435999,1.12294,1,-0.111663,0.993661,-0.0130005
-27.782,46.201,107.643,0.0762833,-0.351121,-3.5,1,0.948707,0.311278,0.0553245
-32.41,36.864,127.613,-0.337674,-0.00681385,-4.41349,0,-0.154343,-0.988004,0.00507388
-35.6603,32.844,94.124,-0.597505,-0.96441,-0.7,0,-0.391405,-0.275448,-0.878026
-30.881,46.6505,118.244,-0.548113,0,4.2,1,0.0761,0.988746,0.1288
-58.7962,51.1735,173.451,0.285841,0,-4.5,0,-0.776653,-0.244697,0.580459
-36.4627,73.576,139.371,-0.833721,-0.0402446,2.14224,0,0.768454,0.304488,-0.562819
-37.8843,73.4215,163.332,-0.0241435,0,-3.2,0,0.39077,0.219815,0.893857
-44.8553,33.084,136.088,-1.10973,0,1.9,1,-0.625138,-0.754095,0.201353
-22.748,44.0202,118.354,-1.31169,-0.136762,-3.5,0,-0.59869,-0.686657,0.412399
-53.941,69.961,163.963,-0.556283,-0.908307,-3.26807,0,0.618879,0.722741,0.307629
-31.2598,22.0115,104.496,0.225668,0,-4.5,0,0.403987,-0.804515,-0.435373
-63.9025,47.9915,162.618,-0.664219,0,-1.6,1,-0.402844,-0.83685,0.370672
-22.5325,45.895,123.287,-0.917748,-0.0425718,-3.5,0,0.0642214,-0.919433,-0.387968
-38.2425,22.077,111.59,0.0447658,0,-0.4,0,0.874976,-0.478295,-0.0751758
-36.528,58.5238,149.173,-0.530157,-0.42377,1.11247,0,0.784813,-0.210781,-0.582787
-41.0783,64.0287,139.01,-0.672119,0,3.8,1,-0.878567,0.261068,-0.399954
-49.2525,63.65,134.531,-0.178469,0,2.8,1,0.00988006,-0.220127,-0.975421
-45.801,28.866,122.767,-0.0748904,0,1.9,0,-0.0502812,-0.997821,0.0427191
-36.8915,59.15,148.465,-0.417204,0,-3.5,0,0.860546,-0.337356,-0.381643
-69.569,51.0698,157.371,-0.114322,0,-3.5,0,0.220088,-0.768588,0.600695
-39.1935,48.239,135.445,-0.40603,0,-1.51,0,0.101473,-0.984674,-0.141845
-21.1963,42.9265,112.883,0.158712,0.279832,-0.544087,0,0.868375,0.391457,0.304443
-37.0402,64.4335,152.385,0.046033,0.00234087,-3.5,0,0.09327,0.878598,0.468365
-41.464,45.6205,151.952,-1.22781,-0.0105831,-3.5,0,0.512531,-0.833889,-0.204794
-38.256,23.7155,110.552,0.126983,0.0257343,-0.453639,0,0.812575,-0.466021,-0.350066
-26.46,31.8575,109.702,0.194087,0,4.2,0,0.550653,-0.386218,0.740011
-30.3283,32.0052,90.1555,0.0700343,0,-3.5,0,0.178885,0.378368,-0.908206
-60.5928,53.944,147.663,-0.403817,0,-4.5,1,0.477533,-0.483506,-0.733611
-46.69,64.2105,169.663,0.0840982,0,-3.2,0,0.764789,0.441402,0.46932
-29.6,46.4905,130.108,-1.52567,-0.0345521,-3.5,0,0.915475,-0.00309571,0.402363
-53.297,72.0192,152.461,-0.47052,-0.46141,-3.11981,0,0.0893002,0.652075,-0.752877
-34.3215,57.521,155.412,-0.177366,0,-4.5,0,0.431855,-0.691973,-0.578511
-43.314,72.685,152.706,-0.233715,0,4.2,0,-0.370418,0.575496,0.729105
-70.8395,53.722,153.87,-0.337194,0,-3.5,0,-0.249617,-0.529063,-0.811039
-43.531,26.833,104.08,-1.00815,-0.00278202,-3.5,0,-0.40335,-0.369446,-0.837149
-49.9095,79.652,137.266,-0.0135975,-0.042646,-0.39544,0,-0.86305,-0.0182921,-0.504788
-55.651,56.548,137.211,-0.194124,0,1.8,1,-0.992581,0.0425229,-0.11391
-44.2011,33.2485,137.245,-1.04542,0,1.9,1,-0.412675,-0.819492,0.397658
-61.5695,54.8022,145.783,-0.356109,0,-4.5,1,0.53002,-0.469952,-0.705849
-25.931,31.2183,97.8122,-0.538186,-0.919334,1.8,0,0.906486,-0.113819,-0.406606
-44.9785,31.0455,116.478,-0.0201822,0,4.16883,0,-0.324839,-0.942,-0.08435
-57.4005,71.8355,164.706,-0.068406,-0.0360756,-2.76167,0,0.0373213,-0.0187113,0.999128
-67.943,50.8225,162.892,-0.658355,0,-1.6,0,-0.0842275,-0.790872,0.606158
-50.601,58.2368,136.207,-0.201598,0,1.5693,1,-0.297923,0.358869,-0.884565
-19.8827,48.91,99.38,-0.569735,-0.289639,1.23392,0,0.717481,0.579836,0.38602
-63.402,46.132,157.244,-0.229365,0.0295609,2.8,1,-0.705146,-0.591817,0.39054
-20.815,45.242,124.707,-1.56775,-0.428182,-3.5,0,0.672224,-0.740235,-0.0129488
-56.325,45.285,167.87,-0.318735,-0.604925,1.8,0,0.61131,-0.42939,0.664774
-46.386,79.222,150.058,0.19906,0,-1.6,0,-0.957577,0.0484127,-0.28408
-51.455,50.83,170.237,0.22272,0,-0.4,0,0.391247,-0.294472,0.871902
-19.762,41.545,111.604,0.290933,0.337705,-0.837375,0,0.8377,0.316939,0.444757
-38.1545,23.6445,114.407,0.700141,0,-0.4,0,0.782908,-0.608438,-0.129837
-39.3165,47.6255,138.988,-1.57487,-0.0513667,-1.6,0,0.809734,-0.586711,0.0100373
-53.235,68.8305,147.101,0.980509,-0.22358,-1.98975,0,-0.161962,0.947364,-0.276171
-69.1048,62.7038,152.608,-0.187927,0,-0.7,1,-0.767827,-0.0522274,-0.638525
-36.2435,26.2173,98.3867,0.0460297,0,-1.6,0,-0.625566,-0.778193,-0.0555246
-49.637,62.9302,175.795,-0.124602,0,3.8,0,0.959707,0.248932,-0.130366
-72.784,73.48,152.495,-1.34148,-0.416183,-3.5,0,-0.772227,0.467457,-0.43029
-34.664,66.6042,163.836,-0.0238147,0,-1.6,0,0.641003,0.604056,0.473531
-32.994,34.3175,124.271,-0.327753,0,-3.5,0,-0.887417,-0.0559061,0.457564
-34.7325,37.523,132.495,-0.599742,0,-3.5,0,0.535622,0.67523,0.507122
-42.071,70.4435,164.687,-0.148304,-0.909461,-0.8,0,0.263014,-0.363139,0.893842
-51.1753,38.4043,151.418,-0.129676,0,-0.7,0,-0.227533,-0.846996,0.480443
-55.8068,75.7262,154.734,-0.207406,0.381133,-4.42974,0,-0.231309,0.580642,-0.780609
-65.7617,66.787,145.896,-0.03406,0.0281036,-3.5,1,0.0651026,0.0657091,-0.995713
-53.3823,38.2005,146.54,-0.0178564,0,-0.4,1,-0.750138,-0.614475,0.244364
-48.8172,29.738,112.049,0.228664,0,1.9,0,-0.903898,-0.293458,0.311208
-34.6948,70.732,134.195,0.630869,0.702001,-4.5,0,0.896917,-0.347314,0.273701
-38.1253,43.3345,106.398,1.04007,0,-3.5,1,-0.543937,0.451473,-0.707322
-60.1255,61.2385,150.054,-0.444915,0,1.8,1,0.230522,-0.68825,-0.687874
-68.4045,71.573,159.587,-0.0126932,-0.0427545,-4.01446,0,-0.520636,0.589232,0.617854
-33.5215,37.977,89.8503,0.222363,0,-3.5,0,-0.265061,0.146446,-0.953046
-47.4482,44.0088,131.781,0.402948,0.594004,-0.270689,1,-0.912179,-0.113911,-0.393641
-42.425,67.636,166.026,0.342891,-0.0798634,-0.7,0,0.876084,0.38404,0.291531
-39.386,49.629,139.141,-0.959347,0,0.6,0,0.704586,-0.136475,0.696371
-23.7265,29.2017,102.962,0.11757,0,1.8,0,0.178128,-0.871869,-0.456197
-55.275,78.7985,154.286,-1.44446,-0.237308,-3.5,0,-0.866137,0.497401,-0.0489761
-27.384,29.4495,91.905,-0.779005,-0.168529,-3.5,0,0.941506,0.189212,-0.278865
-62.5535,53.5508,151.23,0.426575,0.948614,-4.5,0,-0.667135,0.540409,0.512726
-45.9805,43.2755,109.752,0.841327,0.20361,-4.5,1,-0.974456,-0.0645917,-0.215088
-68.7815,64.9928,161.743,0.843167,0.0885716,-1.28038,0,-0.510081,0.337325,0.79122
-38.5908,22.323,113.072,-0.082803,0,-0.4,0,0.831697,-0.512645,0.213249
-53.0513,55.515,145.111,-1.75027,-0.0310205,1.87649,1,-0.796939,-0.443579,0.410033
-55.7455,45.1198,153.878,-0.304889,0,3.12352,1,-0.604057,-0.771245,0.200738
-49.5625,58.6275,169.692,0.0197499,0,-0.684286,0,0.687597,0.243634,0.683997
-27.1015,46.953,124.841,-0.362192,0,-3.5,0,0.484464,0.373936,0.790865
-39.5788,66.6892,155.75,-0.143297,0,3.10982,0,0.897542,0.390069,-0.205586
-28.6685,37.0105,125.342,-0.359309,-0.743177,-2.85286,0,0.852992,0.487093,-0.18747
-33.293,41.909,93.048,0.199535,0.389462,-3.5,0,0.352587,0.0265109,-0.935403
-34.2868,44.4157,109.665,0.480771,0,2.5,1,-0.341465,0.644257,-0.68435
-48.593,40.0295,141.111,-0.713979,-0.251263,-3.5,1,-0.157571,-0.567469,-0.808177
-56.872,44.2178,138.473,0.781619,0.528867,-4.5,1,0.17605,0.0656327,-0.982191
-43.5363,39.7023,97.7038,0.819505,0.586635,-4.5,0,-0.708671,0.417713,-0.568596
-65.0705,48.0655,170.379,-0.162228,0,-3.5,0,-0.713555,0.388145,0.583252
-62.3415,56.9162,146.756,-0.31999,0.00498251,-4.5,1,-0.209223,0.971842,-0.108392
-35.3332,52.8032,144.678,-1.35787,-0.638369,-0.7,0,0.787662,-0.169708,-0.592274
-44.977,47.356,152.957,-1.32083,-0.440947,-3.5,0,-0.0290492,0.746977,0.664214
-55.212,53.974,140.811,-1.56446,-0.805369,-3.5,1,-0.842341,-0.535951,0.0567297
-36.7755,51.336,150.298,-0.282676,0,-0.7,0,-0.40988,-0.396395,0.821504
-66.9202,48.1092,161.4,-0.156242,0,-1.6,0,-0.833493,-0.518276,0.191518
-49.6285,37.239,132.827,-0.402139,-0.0612804,-1.6,1,-0.895686,0.143675,0.420837
-25.4405,31.589,118.527,0.0228221,0,-3.5,0,0.917454,-0.174821,0.357373
-36.5057,71.446,131.549,0.8482,0.81137,-4.5,0,0.117651,-0.070843,-0.990525
-39.198,54.327,154.612,-0.633437,-0,-4.5,0,0.0815673,-0.75549,0.650062
-34.5095,50.8778,96.3733,-1.09018,-0.450478,-3.5,0,0.149611,0.970218,-0.190507
-37.6985,28.0265,108.163,-0.699058,-0.170799,-3.2,0,0.0536235,-0.434384,-0.89913
-38.047,47.4385,112.701,-1.14253,0,1.9,1,-0.00891868,0.999564,-0.0281541
-32.8295,58.9753,157.945,0.128346,0.00513026,-4.5,0,0.59208,0.360217,0.720891
-63.2185,69.1933,151.257,-0.300902,0,-3.5,0,0.295487,0.849756,-0.43658
-48.0238,31.57,123.015,0.235462,0,1.9,0,-0.983091,-0.0960309,0.155918
-46.566,84.1247,150.712,-0.0600215,0,-1.6,0,0.0900645,-0.197771,0.976102
-43.5995,28.7472,123.747,-0.355636,0,-3.5,0,-0.649349,-0.516197,0.558468
-49.507,35.631,140.776,-0.138434,0,-0.7,1,-0.663322,-0.191872,-0.723318
-48.115,43.49,121.125,0.152661,0,2.8,1,-0.45373,0.871472,-0.186186
-75.6565,77.2665,157.145,0.644695,0.677568,-4.5,0,0.476453,0.777276,0.410895
-45.1255,75.413,150.994,0.146815,0,-2.38281,0,-0.882001,0.443807,-0.158459
-50.631,85.8432,140.579,0.388143,0,-1.6,0,0.0351543,0.89937,-0.435773
-33.4465,49.101,111.006,-0.269261,0,-1.04544,1,-0.930371,0.166693,0.326533
-45.509,38.1575,105.039,0.956736,0,1.8,1,-0.366209,0.711888,-0.599255
-38.4992,37.6727,92.9195,-0.0426739,0,-3.5,0,-0.88969,0.439977,-0.121953
-43.058,31.9645,144.097,0.0195617,0,-0.9,0,-0.208453,-0.88295,0.42065
-25.474,44.459,94.529,-0.00722869,0,1.9,0,0.525598,-0.641151,-0.559171
-30.8853,50.3175,114.863,0.505891,0.651406,-0.7,1,-0.42556,0.904805,0.0150622
-51.3078,40.476,105.359,0.98772,0.67309,-4.5,0,0.033985,0.933709,-0.356416
-43.65,77.0638,158.03,-0.0844624,0,1.8,0,0.0509173,0.924726,-0.377212
-36.6985,72.1225,135.967,-0.212568,0,-4.5,0,0.686474,0.71803,0.114833
-47.8415,64.52,139.703,1.05025,0,-0.8,1,0.663019,-0.102149,-0.741601
-37.3667,33.077,94.8005,0.0936108,-0.0260513,0.543294,0,-0.189579,-0.501648,-0.844043
-49.2648,81.2998,135.983,0.133009,0,-0.7,0,-0.528518,0.284467,-0.799842
-41.1905,34.776,131.778,-0.297505,0,1.9,1,0.617263,-0.387841,0.684518
-50.8058,78.0735,138.632,-1.2092,-0.350832,3.8,0,-0.663069,-0.638702,-0.390383
-36.298,49.1942,130.444,-0.39211,0,1.40216,0,0.773938,-0.53491,-0.338956
-56.6968,64.9293,172.275,-1.31809,0,-4.5,0,-0.345316,0.227722,0.910439
-64.5185,58.88,168.309,-0.442217,0,-3.5,0,-0.567805,0.812621,0.131318
-59.9085,59.8435,171.256,-0.246176,0,-3.5,0,-0.451142,0.302421,0.83965
-38.0905,23.3225,115.638,0.224618,0,-0.4,0,0.630245,-0.746073,0.214865
-62.1457,77.7773,162.982,0.208782,0,-0.8,0,-0.662456,0.748667,-0.025485
-20.249,38.873,104.532,-0.0295454,0,1.9,0,0.72381,0.0721683,-0.686215
-26.4355,42.6457,114.525,0.322651,0.254495,4.2,0,0.595483,-0.287625,0.750114
-61.745,51.8365,150.273,1.15381,0,-1.28504,1,0.694843,-0.205452,-0.68919
-44.151,42.2648,147.1,-0.127662,0,-0.7,0,0.660043,-0.672654,0.334484
-48.4975,73.2087,129.407,0.390938,0,-4.5,0,-0.624582,0.563295,-0.540922
-48.0145,56.5395,136.254,-0.146025,0,-0.7,1,0.67196,0.730933,-0.119189
-50.475,74.697,148.159,-1.43922,-0.234482,-3.5,0,-0.658594,0.749775,0.0639697
-27.441,26.6385,106.46,-0.899488,0,-4.5,0,0.679773,-0.700501,0.21727
-45.1712,56.893,168.979,0.591291,0,1.9,0,0.0687956,0.457565,0.886511
-42.6043,23.1343,114.658,-0.352522,0,1.93562,0,-0.407713,-0.510709,0.756933
-39.333,26.1122,123.158,-1.47248,0,-3.5,0,-0.194923,-0.906796,0.373799
-19.654,47.82,125.434,-1.3361,-0.985901,-3.5,0,0.899743,-0.00556481,0.436386
-34.024,57.0633,136.394,-0.14664,0,4.5,0,0.274156,0.539762,0.795924
-23.0785,46.7175,115.489,-0.221632,0,-3.13515,1,0.739616,0.365316,-0.565254
-65.1505,46.199,169.458,-0.357632,0,-3.5,0,-0.818612,-0.458179,0.346333
-34.2755,49.586,149.274,-0.286976,0,-0.7,0,0.65562,-0.587224,0.47469
-34.9755,27.388,95.761,-0.0534834,0,-1.6,0,-0.39549,-0.620421,-0.677249
-72.116,55.0875,150.288,-1.36783,-0.349789,-3.5,0,0.0590861,-0.414453,-0.908151
-52.131,80.2265,155.863,-1.79961,-0.773535,-3.5,0,0.0692226,0.968311,0.239962
-70.02,49.67,162.974,-1.49069,-0.143896,-3.5,0,-0.0522437,-0.698719,0.713486
-21.78,43.5435,118.185,-1.27641,-0.333499,-3.5,0,0.053966,-0.966656,0.250328
-43.9142,64.9285,168.797,-0.229104,0,-0.7,0,-0.368309,-0.0893581,0.925399
-34.8853,73.1488,140.98,-1.1271,0,4.2,0,0.288375,0.826428,0.483587
-46.206,36.2765,148.92,-0.248435,0,-0.8,0,0.193742,-0.649853,0.734952
-40.4311,47.4979,123.285,0.116138,0,-1.3,1,-0.845852,0.115776,-0.520701
-28.165,29.509,91.033,-1.03545,-0.827945,-3.5,0,0.559781,0.268146,-0.784055
-37.4738,26.9595,126.449,-0.192118,0,-3.5,0,-0.503213,-0.160164,0.849191
-41.5742,42.2171,96.9232,-0.845102,0,-3.5,0,-0.988167,-0.0303114,-0.150355
-20.1085,30.2127,106.565,-0.842871,-0.0646984,-3.09308,0,-0.256739,-0.965706,0.0386789
-45.7207,84.0173,145.794,0.525809,0.351525,-0.999339,0,0.463239,0.674999,-0.57427
-49.834,34.0428,108.653,0.687456,0,-4.5,0,-0.156819,-0.925818,0.343903
-49.877,61.386,171.22,-0.48004,-0.420098,-0.976586,0,0.821711,-0.157424,0.547731
-36.312,66.427,147.208,-0.0584644,0,0.488061,0,0.815362,0.381477,0.4355
-64.0033,72.7405,166.045,-1.082,-0.860837,-3.5,0,-0.88875,0.258988,0.378217
-46.4183,70.2562,128.729,0.546353,0.749768,-4.5,0,-0.374492,-0.688652,-0.620898
-58.8085,65.6018,171.241,-0.157978,0,-0.4,0,-0.634716,-0.0371297,0.771853
-63.0655,41.793,146.121,-1.14772,0,-3.5,1,-0.451966,-0.466933,-0.760066
-20.1125,33.495,112.571,-0.994251,-0.16069,-3.5,0,0.453013,-0.346901,0.821243
-41.0643,41.5075,137.426,0.121174,0,-3.5,0,0.525006,-0.106933,0.844354
-47.712,33.869,109.044,0.117275,0,-4.5,0,-0.633306,-0.606285,0.480981
-45.56,32.061,125.378,-0.506937,0,1.9,0,-0.61594,-0.376506,0.691998
-33.902,24.66,99.721,-0.16592,0,-3.2,0,0.250041,-0.772911,-0.583171
-27.0175,45.5955,115.424,-0.207891,0,2.8,0,0.58211,-0.437854,0.685151
-36.4832,48.6642,95.5993,0.179872,0,-3.5,1,-0.708534,0.355644,-0.609506
-51.2585,64.5752,139.145,-0.0776637,-0.557143,0.628721,1,-0.794541,0.552657,0.251544
-37.548,75.195,150.928,-0.553191,-0.770159,0.333234,0,0.406436,0.175699,-0.896627
-48.0238,33.2923,115.469,0.0794102,-0.468564,4.31342,0,-0.703107,-0.704747,0.0947168
-38.9922,72.4045,144.163,-0.721492,-0.53394,1.8,0,0.449467,0.315738,0.835636
-34.421,50.0765,108.924,0.119024,0,-1.6,1,-0.967367,0.168108,0.18958
-51.4245,37.2795,145.109,-0.300144,-0.253663,-0.4,0,-0.328329,-0.929571,-0.167623
-77.9197,63.4948,154.213,-0.0595992,0,4.2,0,-0.658347,-0.627774,-0.415306
-58.498,74.5778,148.418,0.524673,0,-4.5,0,-0.380462,0.59697,-0.706311
-49.0355,68.5123,140.902,0.656913,0,1.97924,1,-0.464615,0.453069,-0.760829
-33.5033,47.0505,105.304,0.20336,0,-0.4,1,-0.929273,0.152011,0.336667
-75.8248,54.9292,159.393,-0.0554109,0,1.8,0,-0.543611,-0.641891,0.540799
-20.9443,41.3055,114.642,0.362373,0,-4.5,0,0.455529,0.350834,0.818174
-19.2243,41.4355,110.528,0.258138,0,2.8,0,0.992225,0.0404606,0.117695
-58.997,42.4427,168.862,0.0195896,0,-1.6,0,0.270687,-0.85207,0.448002
-65.5425,49.756,166.222,-0.882159,-0.178006,1.07115,0,-0.882784,-0.350174,0.313162
-55.558,39.881,148.13,-0.0428836,0,1.8,1,0.179703,-0.978549,-0.10074
-41.6102,45.8893,125.119,-0.422142,-0.537304,-1.3,1,-0.532555,-0.149181,-0.833144
-49.5163,54.5125,171.458,0.0690501,0,1.8,0,0.128678,-0.725973,0.675577
-46.0762,39.931,148.03,-0.200799,0,-0.750344,0,0.5591,-0.130694,0.818735
-25.6227,49.6457,110.943,0.515424,0,2.13966,1,0.825834,0.562908,-0.0336533
-71.4405,72.414,149.866,-1.39052,-0.515292,-3.5,0,-0.459143,-0.13956,-0.877332
-35.5095,50.7637,96.943,-1.12964,-0.358167,-3.5,1,-0.438317,0.882927,0.168282
-46.2555,45.301,118.231,0.0618072,0,4.2,1,-0.220083,0.973731,0.0584062
-46.3952,31.4513,131.498,0.411141,0,1.9,1,-0.738539,-0.669473,-0.0797919
-70.6205,51.6,154.786,-0.344142,0,-3.5,0,-0.340164,-0.72759,-0.595735
-29.7375,54.4183,105.803,0.592473,0.721848,-3.5,1,-0.672086,0.735129,0.0888005
-39.4367,70.595,134.633,0.625108,0,-4.5,1,-0.291956,-0.956163,0.0226922
-48.671,85.75,142.819,-0.907466,-0.259998,-0.4,0,-0.000724458,0.972821,0.231557
-71.5225,67.3675,161.49,0.155386,0,-4.5,0,-0.236943,0.363628,0.900907
-27.532,42.118,117.487,0.0142587,0,4.21792,0,0.88844,-0.138773,0.437512
-21.0473,43.9125,117.251,-1.34421,-0.835464,-3.5,0,0.501008,-0.789198,-0.355186
-41.902,75.542,157.464,0.0975223,0,1.8,0,0.606276,0.588734,-0.534623
-49.523,69.127,141.674,0.744992,0.305067,-3.97884,1,-0.637224,0.275239,-0.719854
-52.5925,84.3867,139.577,0.19431,0,-1.6,0,-0.239004,0.45179,-0.859513
-36.6279,47.8154,134.676,-0.718193,0,2.8,0,0.206979,-0.967393,0.145982
-51.398,75.613,159.689,-0.461221,-0.474229,-3.5,0,0.402365,0.674613,0.618869
-34.3005,25.6472,117.369,-0.164591,0,1.8,0,0.43493,-0.428282,0.792092
-42.41,58.423,167.609,0.339725,0,1.9,0,0.634685,0.720418,0.279593
-67.1555,48.5397,150.545,-0.741978,-0.359917,-2.0809,0,-0.903623,0.229084,0.36192
-61.8162,42.9347,152.311,0.0759126,0,1.8,1,-0.419808,-0.896162,-0.143715
-37.467,44.512,127.115,-1.01948,-0.911142,-1.3,0,0.589251,0.703455,0.397409
-43.147,45.998,125.387,-1.17058,-0.320012,-3.5,1,-0.0992663,0.0274945,-0.994681
-45.8495,45.609,130.358,-0.784388,-0.415332,-4.17823,1,-0.409768,0.877517,-0.249105
-39.2545,35.703,143.105,-0.275113,0,-0.9,0,0.99011,-0.117789,-0.0762073
-66.12,53.008,153.18,-0.254768,0,-0.7,0,-0.260696,0.812492,-0.521435
-55.0207,43.7783,139.752,0.905859,0.847701,-4.5,1,0.297627,-0.400266,-0.866721
-25.596,52.8563,101.781,0.560389,0,-4.5,1,0.170364,0.969381,0.176853
-40.0445,21.7868,109.943,-0.850106,-0.307367,-0.4,0,0.449445,-0.654923,-0.607516
-29.2738,34.9905,128.586,-0.294882,0,-0.4,0,-0.0203395,-0.348884,0.936945
-46.3327,45.2863,162.467,0.432666,0,1.9,0,0.48918,-0.174628,0.854522
-26.996,30.8848,108.672,0.242504,0,4.2,0,0.682902,-0.545297,0.486103
-36.626,49.391,148.789,-0.0375933,0.0144484,-0.7,0,-0.427985,-0.755547,0.495961
-43.0855,52.8283,149.738,-0.637166,-0.382981,-0.7,0,0.704224,-0.609163,0.364675
-41.7385,35.3672,133.376,-0.101295,0,1.9,1,0.897176,-0.415108,-0.150867
-53.359,59.6,140.551,-0.794837,-0.00974134,1.16832,1,-0.990885,0.0702254,-0.114961
-29.7547,53.6808,104.798,0.305633,0,-3.5,1,-0.91859,0.206653,-0.336879
-67.9625,61.4548,166.366,-0.805197,0,1.9,0,-0.373618,-0.0401403,0.926714
-42.1025,48.2325,124.65,-0.369669,-0.063806,-1.6,1,-0.374263,-0.269132,-0.887409
-47.311,24.0557,111.391,-0.00586571,0,4.2,0,-0.801341,-0.59662,-0.0435648
-28.906,49.9212,93.108,0.623864,0.86687,-0.8,0,0.0523962,0.53115,-0.845656
-31.4363,30.5767,123.776,0.199315,0,-3.5,0,0.0989237,-0.380131,0.919627
-39.7125,67.0645,153.786,-0.236141,0,1.8,0,0.811753,0.575099,-0.101577
-22.8305,44.697,105.556,-0.0230852,-0.991143,-0.9,0,0.723288,0.564626,-0.397557
-66.042,70.2122,154.969,-0.256037,0,-3.5,0,0.761374,0.308258,0.570339
-20.0333,46.1932,116.883,-1.12399,0,-3.5,0,0.321679,0.079814,-0.943479
-37.745,46.4378,109.839,-1.08087,-0.27889,-3.5,1,0.216091,0.975926,-0.0295618
-41.4345,21.506,115.118,-1.0394,-0.362529,-0.4,0,-0.466731,-0.747589,0.472518
-37.1955,53.672,154.275,-0.991396,-0.0779832,-4.5,0,0.534095,-0.695625,0.480467
-70.9855,70.076,159.679,0.443083,0,-4.5,0,-0.347639,0.528983,0.77416
-63.798,48.853,146.861,-0.304586,0,-3.5,1,0.0411017,-0.422591,-0.905388
-57.3785,44.392,144.242,0.0163275,0,-4.5,1,-0.891583,0.349085,-0.288476
-61.63,56.5667,145.72,-0.0245136,0.720961,-4.5,1,0.2676,0.671414,-0.691081
-78.9415,76.667,157.478,0.445666,0.698892,-4.5,0,-0.806409,0.588796,0.0549795
-78.121,75.5305,155.339,0.0410178,0,-4.5,0,-0.466219,0.336281,-0.818263
-46.7,40.361,110.78,0.728492,0,3.6448,1,-0.89048,0.401643,0.21384
-45.6255,31.006,114.464,-0.00579224,0,4.5,0,-0.782017,-0.533737,0.321828
-69.4285,53.46,153.361,-1.47403,-0.0682698,-3.5,0,0.132718,-0.132272,-0.982288
-19.645,32.98,111.19,-0.651437,-0.285213,-3.5,0,0.69234,-0.539106,0.479615
-53.706,36.8543,108.424,1.43347,0.782874,-4.5,0,-0.855902,-0.486413,0.175595
-66.452,51.3073,156.146,-0.187473,0,1.90009,1,-0.108531,-0.889719,0.443419
-37.5635,53.29,153.044,-1.15503,-0.265594,-2.43392,0,0.257687,-0.917693,0.302387
-29.99,24.7208,113.865,-1.28216,0,-3.5,0,0.725276,-0.687575,0.0348543
-36.4958,52.2018,118.943,-0.00149079,0,-1.6,1,-0.664069,0.747067,0.0300457
-23.9185,46.1875,104.28,-0.586367,-0.324772,-0.9,0,0.926466,0.242988,0.287432
-62.7747,56.2492,173.688,0.422881,0.548872,-3.5,0,0.150788,0.0435572,0.987606
-49.965,40.6693,118.028,0.257795,0,4.5,1,-0.754591,0.441405,0.485545
-37.6287,74.4713,161.816,0.339098,0,-3.2,0,0.257319,0.949381,0.180172
-33.8805,42.042,129.78,0.146876,0.765512,-3.5,0,0.199406,0.508067,0.837917
-58.8662,60.458,151.329,-0.749837,0,0.797009,1,-0.0483817,-0.133825,-0.989823
-55.28,74.861,150.505,0.103844,0,-4.5,0,0.754945,0.514138,0.407087
-49.7243,41.0563,119.166,0.339182,0,2.8,1,-0.956693,0.234547,-0.172415
-19.929,50.5315,97.1665,-0.532702,-0.25173,-3.5,1,0.2669,0.785002,0.559049
-50.2072,36.0452,141.557,-0.124746,0,-0.7,1,-0.87151,0.0716484,-0.485115
-67.2962,46.135,148.441,-0.228909,0,-0.7,0,-0.704884,0.37999,-0.598955
-19.7,44.5585,99.913,0.293199,0,1.8,0,0.874965,-0.433244,-0.216186
-74.0165,56.049,154.256,0.147043,0,-3.5,0,-0.779314,-0.625493,0.0377886
-53.021,69.4995,163.747,-0.508756,-0.775848,-2.58217,0,0.0573456,0.951937,0.300879
-34.019,30.787,93.501,0.383424,0,-1.76506,0,-0.64148,-0.263324,-0.72053
-47.0005,55.793,170.223,0.333372,0,1.8,0,0.822295,0.0538747,0.566506
-33.113,70.4595,144.586,-0.267163,0,4.2,0,0.249536,0.584216,0.772285
-46.6395,46.355,131.895,0.643774,0,-0.7,1,-0.161208,0.552911,-0.817497
-36.862,27.0417,104.325,0.0656623,0,-1.90882,0,-0.18728,-0.76714,0.613533
-40.135,54.3107,155.13,-0.330692,-0.00761151,3.82922,0,0.452153,-0.815242,0.361854
-37.3332,50.8835,138.103,-0.114609,0,2.8,0,0.456983,0.147678,0.87713
-57.1942,57.1885,148.793,-1.08756,-0.365245,-0.7,1,-0.404976,0.015521,-0.914195
-46.455,75.0275,153.819,0.235601,0.0191992,0.56724,0,0.324838,0.845398,0.424007
-32.18,38.157,89.965,-0.316456,0,-3.5,0,0.250464,0.199572,-0.947333
-27.3137,43.2687,93.167,-0.977655,-0.116585,-3.5,0,0.692883,-0.186079,-0.696626
-74.8125,69.2675,153.679,0.0969253,0,4.5,1,-0.814852,0.432611,-0.385828
-57.5055,67.4118,144.481,0.00358713,0,-0.7,1,-0.0892065,-0.160325,-0.983025
-30.2447,52.52,107.988,0.131119,0,-3.5,1,-0.290036,0.95145,-0.103068
-36.8915,62.025,158.549,-1.51119,-0.307084,4.2,0,0.946284,-0.0398217,-0.320876
-59.528,42.518,139.96,0.432485,0.406336,-4.5,1,-0.8688,-0.335057,-0.364587
-56.438,50.0062,173.497,0.49726,0.383953,-4.5,0,0.122615,-0.679064,0.723766
-41.107,32.7135,143.512,-0.376084,0,-0.9,1,0.618534,-0.785596,0.0159445
-21.097,30.3575,107.09,0.134943,0,-3.5,0,-0.194501,-0.967615,0.160905
-31.3965,51.3128,106.683,-0.377582,-0.0906833,-1.6,1,-0.251141,0.718273,-0.648854
-34.184,63.181,151.347,-0.660118,0,-3.5,0,0.970035,0.141579,0.197453
-37.9142,61.38,156.769,-0.107868,-0.440744,0.376225,0,0.535077,0.731848,-0.422008
-35.6735,67.2995,161.494,-0.680917,0,-1.6,0,0.786731,0.554804,-0.270641
-51.035,78.2605,156.643,-1.11344,0,-3.5,0,0.624793,0.521024,0.581521
-26.3295,51.0617,109.536,0.312092,0,-3.5,1,0.76007,0.470296,0.448459
-18.3668,39.356,109.798,0.367307,0,-4.5,0,0.666168,0.745728,-0.0104387
-60.108,56.6445,147.71,0.384409,0.695686,-4.5,1,0.337072,0.78581,-0.518542
-50.9417,73.36,150.992,0.308055,0.644031,-1.3,0,-0.457298,0.868496,0.191295
-36.0365,70.9615,161.985,-0.57276,0,-3.2,0,0.898804,-0.108899,0.424608
-52.9215,34.5667,102.683,0.74183,0.6165,-4.5,0,-0.648803,0.172748,-0.741089
-37.4907,48.4058,115.265,-1.65714,-0.545764,-3.5,1,0.0529365,0.702301,-0.709909
-73.3015,67.2925,160.389,0.539818,0.362472,-4.5,0,-0.885905,0.237076,0.398707
-29.732,45.1405,129.966,-1.89426,-0.0657553,-3.5,0,0.72385,-0.516047,0.457971
-57.2962,42.937,161.149,0.456848,0,-0.7,0,-0.189751,-0.643978,0.741139
-39.5573,44.3725,147.27,-0.549793,0,-3.5,0,0.872483,-0.330519,0.359904
-40.894,26.9135,119.119,-0.477374,0,1.8,0,-0.878041,-0.398809,-0.264566
-23.359,44.8685,117.299,-1.06832,-0.0786294,-3.5,0,-0.694463,-0.715931,0.0718682
-26.352,50.01,122.919,-1.02007,-0.163964,-2.21162,1,-0.0786302,0.873074,0.481205
-40.6357,26.2773,122.95,-1.50592,0,-3.5,0,-0.295195,-0.875851,0.381765
-63.9408,59.626,166.802,-0.141787,0,2.06808,0,-0.419489,0.576596,0.701118
-40.276,53.3063,157.621,-0.3492,0,4.5,0,0.928061,-0.135812,-0.346781
-49.3568,42.951,127.382,0.983166,0,-4.5,1,-0.83466,-0.0554559,0.547967
-32.192,70.3213,143.336,-0.315529,0,4.2,0,0.6856,0.456795,0.566825
-30.6935,52.4135,110.119,0.46955,0,-1.6,1,0.0477279,0.891039,0.45141
-42.952,32.532,104.845,0.24541,0,-0.9,0,-0.313505,-0.624271,-0.715542
-59.21,55.8548,148.101,-0.0612619,0.427305,-4.5,1,0.710294,0.225256,-0.66689
-37.189,25.8165,126.146,-0.251091,0,-3.5,0,-0.3078,-0.73445,0.604849
-44.716,42.6147,107.257,1.35598,0.0104209,-4.5,1,-0.731712,0.00981453,-0.681543
-39.602,76.6065,137.13,-0.218955,0,1.8,0,0.531772,0.325041,-0.782027
-19.3475,40.5835,106.396,-0.959999,-0.0202418,1.9,0,0.741213,0.667947,-0.0667153
-37.3955,27.7825,101.586,-0.00675048,0,-3.08498,0,-0.630554,-0.563845,-0.533368
-28.8517,29.0485,94.9137,0.0354902,0.0221525,-3.5,0,0.979986,-0.176783,0.0915131
-40.4535,52.4987,148.165,-0.352803,-0.141202,-0.715679,0,-0.102014,-0.812426,0.57407
-53.1775,64.954,175.147,-0.20623,0,3.8,0,-0.331397,0.793339,0.510676
-37.1693,76.337,151.445,-0.201711,-0.211424,-0.4,0,0.678324,0.331172,-0.655898
-33.7335,49.8467,136.114,-0.527715,0,2.8,0,0.645391,-0.477507,0.596203
-67.9115,45.081,148.365,-0.143053,0,-0.7,0,-0.806354,0.0454417,-0.589684
-35.6545,58.278,141.133,-0.0930324,0,-1.6,0,0.821322,0.0255167,-0.569894
-75.5395,60.532,156.895,-0.955507,-0.509453,3.8,0,-0.946037,-0.179515,0.269792
-52.497,35.6372,103.441,0.746868,0.30834,-4.5,0,-0.77481,0.57551,-0.261643
-49.8527,43.931,136.142,-0.052146,0,-3.5,1,0.247843,-0.827472,-0.503849
-27.1175,29.9565,107.836,0.164249,0,3.84786,0,0.768847,-0.435546,0.46816
-48.793,41.2952,129.783,1.03546,0.46407,-4.5,1,-0.987553,-0.109974,-0.112451
-49.9958,40.3252,108.784,-0.755224,-0.228838,-0.4,1,-0.549018,0.820447,0.15952
-40.0628,33.748,136.087,0.150991,0,1.9,0,0.967466,-0.249964,-0.0390915
-74.14,55.8365,153.064,-0.324904,0,-3.5,0,-0.706199,-0.707995,0.00507941
-41.968,26.913,123.123,-0.76512,0,-3.5,0,-0.412513,-0.802535,0.43101
-39.787,69.463,149.644,-0.190816,0,-0.4,0,0.887411,0.342406,-0.308641
-23.2108,34.5215,99.0738,-0.428841,0,-3.5,0,0.628496,-0.0199163,-0.777558
-55.4767,75.705,148.084,0.176255,0,-4.5,0,0.208973,0.846149,-0.490267
-36.1073,49.7425,95.8343,-0.458867,0,-3.5,0,-0.720732,0.55008,-0.421851
-32.4538,58.4753,155.592,0.252657,0.00135006,-4.5,0,0.833801,-0.132189,-0.536006
-64.9737,49.6375,158.585,0.349001,0,-1.6,1,-0.799215,0.155005,-0.580714
-39.0252,21.7208,110.729,0.0555053,0,-0.4,0,0.458682,-0.772862,-0.438515
-57.964,46.357,169.492,0.104288,0,-1.6,0,0.427568,0.0401736,0.90309
-67.4075,53.844,167.301,-0.0795237,0,4.5,0,-0.698488,0.144566,0.700868
-45.5695,31.228,130.407,0.251923,0,1.9,0,-0.434279,-0.72845,-0.52987
-68.0853,62.863,165.893,-0.638188,0,1.9,0,-0.555266,0.413233,0.721747
-35.507,46.192,91.714,0.144855,0.277077,-3.5,0,0.708843,0.465713,-0.529767
-32.92,49.674,133.691,-0.523254,0,2.8,0,0.931115,-0.354397,-0.086183
-63.9195,41.908,148.435,-0.0617562,-0.175919,-3.5,1,-0.523612,-0.851764,0.0181158
-28.229,49.5658,121.766,-1.56796,-0.466533,-0.7,1,-0.575197,0.773871,-0.265088
-41.2752,71.0383,134.268,0.538104,0,-4.5,1,-0.663656,-0.743385,-0.0833042
-49.2715,35.5093,102.101,0.701041,0,-4.5,0,0.442152,-0.0379341,-0.896138
-42.109,32.775,104.106,0.206268,0,-0.9,0,-0.521704,-0.627283,-0.578223
-49.2533,45.0418,124.251,1.05381,0,-4.5,1,-0.106026,0.891822,-0.439786
-68.091,67.203,152.214,0.603124,-0.362634,-1.30375,1,-0.775097,-0.35565,-0.522243
-44.3498,74.7572,164.242,-1.12654,-0.191408,-3.28826,0,0.0736615,0.732164,0.677134
-58.1278,70.614,147.12,-0.118917,0,-0.7,0,-0.767003,0.372666,-0.522328
-50.4487,35.3575,142.446,-0.12957,0,-0.7,1,-0.954731,-0.260791,0.143096
-21.6455,33.4072,100.912,0.0704442,0,-3.5,0,0.87788,-0.141543,-0.457486
-42.877,51.2445,154.822,-1.71182,-0.129186,1.8,0,0.913237,-0.252985,-0.319368
-22.4998,51.945,96.5393,-0.676236,-0.793165,-3.5,1,0.0724671,0.939167,-0.335728
-21.661,34.7962,101.075,0.623744,0.46437,-3.5,0,0.863709,0.401348,-0.30484
-38.36,52.867,128.534,-0.429112,0,-1.3,1,0.744683,0.627411,-0.227604
-45.2492,23.575,114.4,-0.103585,0,4.2,0,-0.381253,-0.594579,0.7079
-28.8822,36.0617,121.862,-0.440215,-0.600572,-3.5,0,0.90517,0.37401,0.201951
-41.3652,78.4303,138.31,-0.135193,0,4.3886,0,0.594147,0.804299,-0.00959535
-63.0185,73.2155,158.553,0.104786,0,-0.7,0,-0.242659,0.0613428,-0.96817
-42.9775,82.7,148.602,-0.542755,-0.00909681,1.8521,0,0.571211,0.802381,0.172925
-42.089,73.359,146.771,-0.0266773,0,-3.2,0,0.720993,-0.370586,0.585521
-63.266,70.019,152.079,-0.366642,-0.658697,-3.5,0,0.430108,0.853846,-0.293178
-50.8545,46.8122,130.831,-0.379961,0,-3.5,1,-0.361042,-0.49875,-0.78797
-32.5015,47.9195,98.335,0.0175828,0,-0.319443,1,0.0693359,0.99514,-0.0699174
-37.262,25.3955,113.545,0.0685103,0.306883,0.599802,0,0.499081,-0.638339,-0.586039
-43.321,74.732,164.25,-0.212678,0,-1.6,0,-0.128744,0.850762,0.509538
-38.7005,52.608,127.129,-0.318163,0,-1.3,1,0.594296,0.680872,-0.428049
-38.175,80.5977,155.11,0.0955592,0.59369,-3.5,0,-0.12358,0.291822,0.948456
-42.617,65.3668,169.167,-0.145345,0,-0.7,0,0.229832,0.163958,0.95932
-57.9555,60.8252,150.876,-0.614447,0,-1.09298,1,-0.574278,-0.317536,-0.75457
-39.3685,51.0762,133.566,-1.70746,-0.111576,-1.56143,1,-0.636483,-0.376282,-0.673276
-28.674,26.0565,106.428,-0.0162229,0,-4.5,0,0.460833,-0.687817,0.560839
-38.345,43.557,128.688,-1.39124,-0.133071,-1.3,0,0.20525,0.341842,0.917069
-54.3935,72.569,163.06,-0.229664,0,-3.5,0,0.648127,0.00801855,0.76149
-46.9157,50.298,159.526,-1.95842,-0.364496,-0.8,0,0.502034,-0.846422,0.17757
-49.9075,37.078,141.596,-0.159526,0,-0.7,1,-0.78103,0.230328,-0.580466
-37.7962,61.2275,154.988,-0.0738701,-0.19813,-1.29525,0,0.560019,0.722079,0.406178
-52.304,66.195,170.629,-0.119437,0,-4.5,0,0.552526,0.6256,0.550763
-45.9895,71.131,128.139,0.687528,0.34886,-4.5,0,-0.0724764,-0.00926364,-0.997327
-28.537,29.3958,95.8965,0.00722829,0,1.8,0,0.792872,-0.38422,-0.472999
-44.3343,49.9385,156.338,-0.720031,-0.074004,1.8,0,0.0228043,-0.997702,-0.0638021
-41.9675,72.1888,146.618,-0.0060448,0,-3.2,0,0.597988,0.385097,0.70293
-60.965,77.5362,164.293,0.0397946,0,-0.8,0,0.00564953,0.605603,0.795747
-41.7542,44.7233,134.326,-1.23665,0,-3.9,0,0.676339,0.593253,-0.436595
-73.511,62.4545,159.551,-0.162446,0,1.9,0,-0.942286,0.317732,-0.105566
-30.8738,51.0945,95.8005,-0.186839,-0.630428,-0.8,1,0.131048,0.783977,0.6068
-25.8792,49.1777,119.671,-0.146446,0,-3.5,1,-0.635762,0.770948,-0.0380416
-21.058,48.917,118.388,-0.329426,0,-3.5,1,0.587394,0.809175,0.0143107
-76.9285,72.3258,156.324,0.5132,0.294726,-4.5,0,-0.255345,-0.956061,0.144039
-39.0275,66.5365,156.577,-0.120564,0,4.5,0,0.695007,0.558597,-0.452697
-44.4705,46.9272,114.321,0.761686,0.862144,-3.5,1,-0.698632,0.68017,-0.221996
-52.509,53.8447,174.423,-0.000202946,0,3.8,0,0.682817,-0.0283556,0.730039
-55.7228,73.1793,146.122,0.357232,0,-4.5,0,0.080935,0.251144,-0.96456
-68.9965,67.9025,152.193,0.361206,0,4.36532,1,-0.252738,-0.644141,-0.721946
-49.8252,38.57,132.78,-1.41489,-0.161803,-1.6,1,-0.96646,0.188922,0.173963
-40.7535,55.1205,135.283,-1.19127,-0.623325,-1.6,1,-0.791741,-0.0272737,-0.610248
-50.8952,74.7333,160.122,-0.425602,-0.0297817,-3.5,0,0.416829,0.425223,0.803392
-31.922,47.9022,97.4895,-0.48645,0,2.8,1,-0.1268,0.957468,0.259186
-22.0575,49.336,124.772,-1.23264,-0.524701,-3.5,0,0.126882,0.926685,0.353774
-43.15,29.7668,117.365,-0.170104,0,4.2,0,-0.623213,-0.781981,0.0105576
-33.008,60.0285,156.768,0.086766,0,-4.5,0,0.419913,0.862351,0.282884
-44.8423,24.7108,114.853,-0.164038,0,4.2,0,-0.177928,0.0548727,0.982512
-47.7308,43.495,161.784,0.288576,0,1.9,0,-0.0533997,-0.722934,0.68885
-17.5865,49.2733,95.0835,-0.420007,0,-3.5,1,0.707178,0.176826,-0.684567
-41.601,35.4395,100.841,0.913975,0.293656,-4.5,0,-0.513,-0.848094,-0.132544
-72.638,64.5378,153.657,-0.788442,0,4.2,1,0.460074,-0.0267993,-0.887476
-31.359,70.773,142.519,-0.294433,0,4.2,0,0.654592,0.485767,0.579258
-34.5995,51.074,146.387,-0.369895,0,-0.7,0,0.808698,-0.206195,-0.550901
-26.4995,29.1045,97.9495,-1.45411,-0.430552,1.8,0,0.661401,-0.736228,-0.143235
-51.71,79.1557,154.199,-1.34421,0,-3.5,0,0.545417,0.49927,-0.673239
-36.116,56.465,146.622,-1.37969,-0,3.8,0,0.99492,0.0590715,0.0815178
-46.4235,52.247,160.876,-0.472342,-0.70498,-0.8,0,0.664985,-0.332173,0.668921
-47.039,52.439,167.911,-0.237842,0,4.34419,0,0.631255,-0.351495,0.691353
-66.792,70.879,163.067,-0.943733,-0.502075,-4.5,0,-0.663739,0.479115,0.574369
-28.099,46.9543,126.78,-0.394797,-0.0310794,-3.5,1,0.907603,0.392502,0.14899
-23.4925,48.5185,105.121,0.753062,0,-4.5,1,0.80241,-0.217096,0.555885
-71.062,70.3635,150.903,-0.570652,0,4.06713,1,0.0335725,-0.101604,-0.994258
-46.8365,37.5785,138.654,0.501721,0,-0.643854,1,-0.678895,0.685621,0.262727
-28.9525,42.999,92.475,-1.1546,-0.0343163,-3.5,0,-0.0621692,0.219279,-0.973679
-20.197,47.9448,118.234,-0.715717,-0.344605,-3.5,1,0.682499,0.687904,-0.246947
-39.0252,48.3532,134.411,-0.48912,0,0.597824,0,-0.225155,-0.951341,-0.210369
-24.816,45.1815,93.7605,-0.460802,-0.534824,-3.5,1,0.395816,-0.84691,-0.355067
-49.4585,37.5173,105.096,0.711717,0.119038,-4.5,0,0.395394,0.539574,-0.743319
-52.279,70.247,144.192,0.19699,0,-4.5,0,-0.856953,0.43589,-0.27501
-54.696,78.8343,160.962,-0.0141593,0,3.8,0,-0.134509,0.658862,0.74014
-53.5532,39.6808,145.036,0.136577,0,-0.4,1,-0.757036,-0.287895,-0.586526
-26.2887,49.661,92.069,0.261303,0,-3.5,0,-0.171947,0.689592,-0.703489
-45.9318,37.2607,149.005,-0.254939,0,-0.8,0,0.61373,-0.0475779,0.788081
-52.3845,69.3435,146.316,1.00683,0,-4.48775,0,-0.633249,0.751427,0.185344
-54.325,45.1515,165.794,-0.161453,0,1.8,0,0.0795605,-0.987292,-0.137569
-40.9258,51.8577,134.696,-0.312603,-0.0817892,1.39586,1,-0.811928,0.542617,-0.215268
-69.536,70.5965,160.927,0.148174,0,-4.5,0,-0.546034,0.645351,0.5342
-21.6825,39.4075,102.447,0.340618,0.431483,0.500021,0,0.891884,0.129876,-0.433216
-40.8473,71.3405,132.973,0.938269,0,-4.5,1,-0.515235,-0.623944,-0.587561
-46.6403,48.5942,165.163,-0.0492016,0,4.5,0,0.698215,-0.651514,0.29669
-65.8505,72.44,152.734,-0.530985,-0.7713,-3.5,0,0.430618,0.889242,-0.154326
-59.7878,78.0277,163.682,0.0617825,0,-0.8,0,0.298357,0.719474,0.627169
-53.0962,66.4902,172.457,-1.48551,-0.424396,3.8,0,0.44867,0.89118,0.0670293
-40.774,41.251,101.731,0.18799,0,-4.5,1,-0.830442,0.434235,-0.349007
-42.5783,83.4375,144.909,0.299002,0,1.9,0,-0.269664,0.919946,0.284573
-42.3322,21.9175,109.417,-1.24772,-0.266086,-0.4,0,-0.505545,-0.545177,-0.668735
-51.4135,78.837,140.64,-0.850375,-0.849229,3.17969,0,-0.848946,-0.452949,-0.272264
-42.445,79.385,138.279,0.517509,0,3.15,0,0.713066,0.692842,-0.107274
-31.1197,37.3737,129.021,-0.523564,-0.000762499,-0.4,0,0.0901906,-0.259944,0.961402
-47.8022,47.2612,131.888,0.111976,-0.0688851,-1.94018,1,0.429639,0.455937,-0.779443
-53.535,38.013,105.758,0.103186,0,-4.5,0,-0.437203,-0.451337,-0.777913
-33.0802,29.98,124.473,-0.270133,0.129857,-3.5,0,0.879457,-0.0393191,0.474351
-38.526,38.389,132.101,-0.392382,0,-1.07633,0,0.04582,-0.29615,0.954042
-29.914,37.7035,129.318,-1.59504,-0.0485861,-0.4,0,-0.143558,-0.0551039,0.988107
-35.518,62.89,160.989,-0.00189572,0,-0.952483,0,0.810198,-0.209098,-0.547593
-60.3107,77.169,159.542,0.588931,0,0.401098,0,-0.243063,0.876807,-0.414885
-38.955,36.5368,132.44,-0.641895,0.419314,-0.95638,1,0.0335567,-0.444855,0.894974
-39.333,45.284,122.105,0.497384,0,-0.4,1,-0.975064,-0.193885,-0.107973
-70.4977,73.6927,158.394,0.502276,0,1.8,0,-0.420874,0.500478,0.756563
-39.9515,27.0357,101.961,-0.037292,0,-0.7,0,-0.105309,-0.893242,-0.437069
-48.1312,39.35,149.465,-0.238995,0,-0.753588,0,0.565859,-0.286093,0.773275
-46.87,28.2555,110.099,-0.399239,-0.120858,-1.27479,0,-0.899299,-0.41188,-0.147024
-66.097,75.932,163.543,1.16792,0.629527,-0.7,0,-0.501649,0.698273,0.51065
-66.8075,64.1665,151.195,-0.638119,0,-0.7,1,-0.635889,-0.0785255,-0.767775
-31.0168,24.4463,113.31,-1.84429,-0.557296,-3.5,0,0.182277,-0.909452,-0.373728
-44.6707,45.9147,125.918,-1.09723,-0.122509,-3.5,1,-0.765103,0.41487,-0.492443
-62.0205,42.203,145.901,-0.723763,-0.705756,-3.5,1,0.194837,-0.296974,-0.934797
-31.4517,21.4315,105.74,0.657883,0.0345015,-4.5,0,0.477745,-0.856209,0.196637
-51.7595,39.863,124.747,0.663975,0.571175,-4.5,1,-0.725873,-0.648276,0.229884
-62.831,54.5037,145.677,-0.0711562,0,-4.5,1,-0.00672416,-0.605863,-0.79554
-36.7077,71.3558,163.116,-0.804632,0,-3.2,0,0.685033,0.0186193,0.728274
-32.6908,27.081,118.574,-0.178736,0,-3.5,0,0.131729,-0.738098,0.661709
-47.114,36.74,149.056,-0.425464,0,-0.8,0,-0.182094,-0.313903,0.93183
-50.2405,35.123,132.055,0.144389,0,-1.6,1,-0.953686,-0.276003,-0.119605
-23.7905,51.14,121.102,-1.26717,-0.647949,-3.5,1,-0.0321687,0.931419,0.362525
-55.4922,51.7878,173.822,0.163779,0,-0.35228,0,0.158955,-0.394155,0.905194
-37.57,56.6982,138.236,0.173419,0,-1.6,0,0.793948,0.569122,0.213884
-33.7525,51.9205,110.107,-0.012334,0,-1.6,1,-0.739015,0.474813,0.477922
-38.4925,38.3915,90.7552,0.568011,0.753784,-3.5,0,-0.785756,0.492575,-0.374109
-59.4567,42.658,142.443,0.286171,0,-4.5,1,-0.835759,0.323394,0.44376
-45.8927,41.4857,108.245,0.714657,0,-0.4,1,-0.613591,0.712867,-0.339596
-21.5395,47.669,101.495,0.0743254,0,1.8,1,0.500772,0.204735,0.841018
-48.5,65.998,167.089,-0.147003,0.985889,-3.2,0,0.503796,0.708299,0.494471
-41.1912,65.2937,166.827,-0.0852452,0,-0.7,0,0.975799,0.216592,-0.0300679
-40.891,80.4995,148.161,-0.524062,0,-0.762661,0,0.933618,0.353059,-0.0608779
-64.783,72.2412,152.272,-1.35091,-0.344754,-3.5,0,0.565854,0.822432,0.0584352
-33.7827,29.1865,94.193,-0.379132,-0.732893,-1.44554,0,-0.642554,-0.274231,-0.715486
-77.4065,68.0235,157.15,0.0519846,0,4.2,0,-0.460605,0.776196,0.430539
-40.8516,42.3908,102.459,-1.46464,-0.750207,-4.5,1,-0.926611,0.301107,-0.225225
-29.1445,32.3348,111.176,0.165294,0,3.11315,0,0.901789,0.292586,0.318074
-21.785,45.1522,125.862,-1.52944,-0.0849424,-3.5,0,0.0774978,-0.739686,0.668475
-47.8997,76.148,138.375,0.162911,0,-0.7,1,-0.706599,-0.642266,0.297007
-40.1585,52.2545,158.301,-1.4746,-0.637939,-0.4,0,0.947128,-0.282793,0.15158
-30.5105,52.645,109.099,0.180017,0,-1.6,1,0.0458908,0.984152,0.171286
-30.7323,49.0355,129.841,-1.92256,-0.303631,-3.5,0,0.48253,0.865222,0.136215
-22.4285,33.7103,99.9068,-0.0269204,0,-3.5,0,0.719363,-0.22956,-0.655606
-48.804,41.1815,130.99,0.412487,0,1.41619,1,-0.962064,0.272343,-0.0161894
-31.1063,38.6157,90.6298,-0.0921362,0,-3.5,0,0.401853,0.398936,-0.824235
-49.014,39.4323,119.066,0.234313,0,3.62889,1,-0.889826,-0.425314,0.165281
-50.6565,41.5182,116.494,0.231549,0,4.5,0,-0.651841,0.692268,0.309626
-49.501,35.4987,121.02,0.22359,0,-1.3,0,-0.988191,-0.0195673,-0.151973
-47.1395,53.9673,133.324,0.115787,0,3.8,1,0.0845391,0.40269,-0.911424
-41.8345,44.5195,97.7215,0.0133139,0,-3.5,0,-0.935117,0.303531,0.182825
-40.341,47.4137,153.327,-1.52696,-0.205134,-3.5,0,0.836473,0.348766,0.422701
-64.87,58.7675,172.425,-1.04382,0,-3.5,0,-0.751109,0.523299,0.402484
-47.135,85.0807,141.973,-1.1468,-0.225606,-0.4,0,0.823404,0.417248,-0.384591
-39.6068,39.1668,133.849,-0.284874,0,-0.690729,1,0.518686,-0.849021,0.100642
-34.779,55.0262,149.03,-1.50452,-0.464278,-0.7,0,0.946417,0.202396,-0.251656
-44.2497,54.7105,160.001,-0.650193,-0.493075,4.5,0,0.176306,-0.50975,0.842064
-65.961,51.5392,157.486,-0.210228,0,4.5,1,-0.218558,-0.970278,0.103894
-28.682,30.233,120.871,-0.385224,0,-3.5,0,0.617664,-0.759396,0.204472
-37.6015,46.2105,92.087,0.160096,0,-3.5,0,-0.67335,0.738914,-0.024616
-38.203,49.5665,122.94,1.46533,0.569366,-0.4,1,-0.28823,0.838072,-0.463205
-50.2702,42.6297,139.661,-1.36182,-0.619072,-3.5,1,-0.0244858,-0.729164,-0.683901
-36.2127,45.1265,90.831,-0.0133141,0,-3.5,0,0.353379,-0.040379,-0.934608
-61.9075,50.9767,149.54,1.01757,0,-2.7669,1,0.810712,0.478655,-0.337099
-35.0103,71.7995,133.877,0.198309,0,-4.5,0,0.861303,0.49809,0.100312
-31.116,69.5573,139.964,-0.330593,0,4.2,0,0.802971,0.0420015,-0.594536
-41.3792,42.843,144.933,-0.483742,0.254876,-3.5,0,0.186342,-0.904527,0.383546
-47.3088,30.669,113.123,0.345218,0,1.9,0,-0.51816,0.108204,0.848411
-39.728,63.4115,135.831,-0.0330939,0,3.8,1,-0.407944,-0.0961793,-0.907927
-35.3615,22.2345,103.737,0.667468,0.600126,-4.5,0,-0.678148,-0.690101,-0.252737
-49.1507,72.2188,160.841,-0.0785155,0,2.8,0,-0.410133,0.649089,0.640682
-25.806,39.324,95.402,-0.918441,-0.361253,-3.5,0,0.70403,0.259301,-0.661139
-37.943,72.144,131.512,0.928514,0.700236,-4.5,0,0.0544815,-0.118592,-0.991447
-61.257,56.783,146.654,-0.0119349,0.500844,-4.5,1,0.336194,0.941412,0.0267887
-61.838,42.584,158.363,0.0885659,0,2.8,1,-0.540733,-0.650655,0.533157
-77.3073,76.6367,158.378,0.306901,0,-4.5,0,0.0874102,0.182789,0.979259
-48.841,75.688,147.945,-0.116617,0,-3.5,0,-0.26227,0.782102,0.565271
-56.915,73.8025,146.752,-0.14613,0,-4.5,0,-0.3853,0.470731,-0.793698
-44.1312,71.8745,129.12,0.510181,0,-4.5,0,0.714912,0.324663,-0.619269
-30.6803,26.5325,110.235,0.164723,0,-2.44215,0,0.685332,-0.689431,0.234533
-38.2365,74.3725,162.661,0.327522,0,-3.2,0,0.175606,0.899253,0.400633
-29.615,26.966,110.29,0.427867,0,-0.4,0,0.323517,-0.920566,0.218851
-63.2185,69.5918,158.675,0.12628,0,-1.6,0,-0.0842861,0.0854321,-0.992772
-43.7643,50.2295,159.562,-0.166475,0,-0.4,0,0.07873,-0.684984,0.724292
-23.1882,50.351,119.131,-1.17685,-0.315839,-3.5,1,0.380006,0.847204,-0.37127
-19.978,45.1188,98.9183,0.413023,0,1.8,0,0.747941,-0.549724,-0.372005
-51.5392,70.718,147.478,0.0186725,0,-2.90073,0,-0.821825,0.45291,-0.345653
-28.363,26.894,101.523,-0.328442,-0.345416,0.643543,0,0.673457,-0.736927,0.0582612
-46.1385,46.134,159.447,-0.777376,0,1.9,0,0.846823,0.348154,-0.402095
-51.8247,34.4803,109.83,0.418168,0,-4.5,0,-0.63182,-0.719007,0.289539
-38.391,51.91,126.384,-0.255416,0,-1.3,1,0.585939,0.677152,-0.445129
-67.47,73.5355,154.303,0.622525,0.278702,-0.849276,0,0.654408,0.755538,-0.0302131
-47.581,34.065,137.499,-0.903835,-0.249457,-0.612378,1,-0.325995,-0.928546,-0.177566
-64.1945,67.7485,167.498,-0.0310829,0,-0.7,0,-0.15018,-0.0337348,0.988083
-42.7018,55.2585,161.57,-0.316132,-0.0478601,4.5,0,-0.408897,-0.894793,0.179302
-66.7097,68.253,147.298,0.117554,0.454409,-3.5,1,-0.815498,0.361065,-0.452321
-63.638,54.7743,171.566,0.176346,0,-3.5,0,-0.540669,-0.83973,0.0503138
-56.3268,58.2755,175.274,-0.708711,-0.523939,-0.4,0,-0.440559,-0.261522,0.858787
-68.731,45.6575,150.973,0.54525,0.17247,-0.7,0,-0.961233,0.257034,-0.0998228
-49.6558,85.3985,140.236,0.124369,0,-1.6,0,0.562037,0.525772,-0.638497
-39.0645,74.8725,134.127,0.279301,0,-4.5,0,0.328493,0.788383,-0.520139
-38.82,43.256,135.305,-0.797929,0,-3.5,0,0.597303,0.681773,0.422393
-40.084,53.113,132.435,-0.555901,-0.333724,1.54997,1,-0.837722,0.525412,0.148875
-34.1418,62.183,151.284,0.286292,0,-3.5,0,0.985212,-0.00135151,0.171337
-52.2865,44.4183,135.87,-0.942504,-0.409496,-3.5,1,-0.741317,-0.664368,-0.0952054
-45.5143,72.975,165.35,-0.606699,-0.42504,-2.50425,0,-0.374915,0.582829,0.720937
-64.5713,54.5457,149.181,0.207862,0.0217127,-4.5,0,-0.822121,0.423807,0.380137
-43.3815,45.5735,110.159,0.173525,0,-4.5,1,0.0511794,0.997751,0.0432794
-41.2303,83.6598,143.249,0.259349,0,1.9,0,0.512255,0.819472,-0.257024
-33.751,47.666,110.588,-0.10098,0,0.380853,1,-0.995541,0.0914711,0.0230277
-39.579,48.352,141.79,-0.0241583,0,-1.6,0,0.982239,0.0811557,0.169177
-47.9945,73.344,141.198,0.295497,0,2.8,0,-0.762041,0.275356,-0.586066
-63.5915,59.193,151.223,-1.14921,-0.0457419,-4.5,1,-0.540389,-0.167734,-0.824527
-43.5385,31.168,126.87,-1.22939,-0.167263,1.9,0,-0.541133,-0.777664,0.320022
-51.644,65.3662,135.24,0.0466888,0,2.8,1,-0.504779,0.496933,-0.705872
-42.8515,34.8755,94.675,0.201094,0,1.8,0,-0.820759,-0.175957,-0.543502
-68.8835,64.6127,153.332,-0.254579,0,-0.115288,1,-0.678892,0.0798232,-0.729886
-25.4915,31.1615,107.294,0.503622,0.0196822,4.2,0,0.416581,-0.647673,0.637949
-36.99,55.5793,132.474,-0.153055,0,4.5,1,-0.279073,0.646352,-0.710174
-35.408,75.677,153.933,0.0526906,0,-0.4,0,0.544778,0.827605,-0.135225
-28.9575,47.6758,118.165,-0.825367,-0.114015,0.490483,1,-0.699816,0.673719,0.237404
-38.9235,73.342,150.706,-0.177939,0,4.2,0,0.429337,-0.186622,-0.883653
-69.2832,56.9085,152.096,-2.33623,-0.511306,-3.5,0,0.836973,-0.0602159,-0.543921
-42.098,81.549,140.898,0.0964389,0,4.5,0,0.717251,0.366958,-0.592362
-38.5573,75.7337,154.844,0.154412,-0.161775,1.74142,0,0.35914,0.577967,0.732784
-38.748,40.94,136.678,-0.946884,-0.920369,-3.5,0,0.178609,-0.0538013,0.982448
-59.3725,43.0858,138.988,0.448869,0.745221,-4.5,1,-0.751713,-0.158864,-0.64007
-38.2355,44.2277,91.2735,0.316947,0.68844,-3.5,0,-0.722122,-0.233082,-0.651316
-64.4567,42.2752,149.546,0.707746,0.846663,-3.5,1,-0.354749,-0.778369,0.517972
-33.4575,50.6455,115.659,0.0133744,0,-0.4,1,0.0988271,0.949276,-0.298511
-26.5425,52.659,106.781,0.249416,0,-3.5,1,0.884433,0.452658,0.113482
-57.283,43.2762,138.488,0.482252,0,-4.5,1,0.15468,-0.230624,-0.96067
-48.4538,30.6577,112.329,0.403725,0,1.9,0,-0.816162,0.27112,0.510267
-43.896,50.2933,128.927,0.219032,0,-1.6,1,-0.625306,0.779706,-0.0324177
-52.795,58.449,136.078,0.0270637,0,1.8,1,-0.119439,0.545949,-0.829261
-56.6488,39.5213,147.925,-0.015003,0,1.8,1,0.111968,-0.883572,-0.454712
-14.8065,36.0795,109.019,-0.0214561,0,1.8,0,0.479206,-0.33807,0.809982
-36.8162,25.598,102.79,0.312159,0,-3.2,0,-0.667596,-0.658684,0.347061
-42.8105,81.013,151.395,-0.470297,-0.79767,-1.6,0,0.188053,0.738514,0.647482
-19.942,40.592,105.333,-0.647692,-0.860095,1.9,0,0.546265,0.611922,-0.571967
-35.525,25.969,125.321,-0.252742,-0.559067,-3.5,0,0.0905771,-0.914551,0.394199
-39.5057,45.1292,145.992,-0.875412,0,-3.5,0,0.988647,-0.141121,-0.0515989
-74.8698,65.1175,153.317,-0.193143,-0.377631,4.2,1,0.0236075,0.0117287,-0.999653
-36.719,72.3845,131.905,0.462612,0.335629,-4.5,0,0.276563,0.473907,-0.836018
-37.773,41.3675,136.51,-1.67142,-0.306172,-3.5,0,0.593793,0.221519,0.773524
-38.3773,47.8112,128.25,-0.233864,0,-1.3,0,0.121167,-0.932499,0.340242
-37.5335,42.4305,133.859,-1.3706,0,-3.5,0,0.650971,0.758664,-0.0257792
-21.085,50.409,95.5592,-0.314361,-0.136307,-3.5,1,0.1017,0.557655,-0.823819
-26.839,33.7822,116.829,0.267604,0,-3.5,0,0.55867,0.753815,-0.345907
-19.3785,45.4408,117.234,-1.48034,-0.346954,-3.5,0,0.585878,-0.42913,-0.687455
-19.059,45.5545,119.272,-1.19189,-0.0374299,-3.5,0,0.685287,-0.280222,0.672203
-49.4805,49.121,166.501,0.227665,0,4.5,0,0.149815,-0.794463,0.588544
-50.172,77.7178,156.413,-0.320767,0,-3.5,0,0.785232,0.566361,0.250294
-74.7018,57.1268,153.939,0.112334,0,-3.5,0,-0.910773,-0.396203,-0.116254
-62.814,61.5515,150.517,-0.274585,0,1.8,1,-0.537713,-0.399197,-0.742635
-33.2715,71.0407,143.592,-0.359889,0,4.2,0,0.317095,0.762314,0.564206
-47.0535,85.8743,146.589,0.1292,0,-1.6,0,0.206072,0.804071,-0.557677
-24.1483,45.159,116.391,-0.176574,0,-0.351121,0,-0.469249,-0.812742,0.345336
-50.763,39.9383,104.703,0.820561,0.654269,-4.5,0,0.317882,0.574383,-0.754344
-36.272,46.1872,90.9205,0.404619,0.651194,-3.5,0,0.168604,0.516028,-0.839814
-43.924,52.6053,133.891,-0.0680849,0,3.8,1,0.866303,0.277042,-0.415653
-51.723,39.9437,123.696,0.787113,0.488258,-4.5,1,-0.516916,-0.853281,-0.0686195
-72.1245,50.773,160.911,-2.11461,-0.43855,-3.5,0,-0.671722,-0.733847,-0.101281
-33.5807,49.6538,106.751,0.217744,0,-1.6,1,-0.751002,0.240278,-0.61503
-51.359,67.936,164.917,-0.095707,0,2.8,0,0.503736,0.72437,0.47068
-24.653,46.563,92.218,-0.0691814,0,-3.5,0,0.503416,-0.231466,-0.832463
-41.6145,53.5025,165.583,0.411511,0,1.9,0,0.447157,-0.885484,0.126368
-33.746,27.468,121.051,-0.681609,-0.671432,-3.5,0,0.760231,-0.616971,0.20346
-36.2185,56.364,155.734,0.0588651,0,-4.5,0,0.480833,-0.866532,0.133872
-28.1763,34.595,92.6633,-1.00947,-0.37527,-3.5,0,0.913902,0.242046,-0.325879
-45.8927,31.3797,132.594,0.308248,0,1.9,1,-0.416632,-0.757963,0.501906
-52.2145,42.5415,124.074,0.0189322,0,-4.5,1,-0.854449,0.39329,0.339471
-40.622,54.5622,160.535,-0.0570174,0,-3.5,0,0.128036,-0.971906,0.197497
-48.9048,33.896,142.283,-0.282793,-0.0599089,-0.7,1,-0.722047,-0.677703,-0.139163
-64.0533,54.6702,146.003,0.294709,0.825399,-4.5,1,-0.63149,-0.325387,-0.703806
-35.9995,46.5358,102.525,0.127528,0,4.5,1,-0.439963,0.896962,-0.0434817
-41.8662,31.7383,131.247,-0.238556,0,1.9,1,0.369031,-0.865184,0.339519
-43.8893,72.4293,130.485,0.767923,0.179371,-4.5,1,0.811605,0.528669,-0.248611
-47.4635,75.0717,153.385,0.590308,0.499685,-0.7,0,-0.501349,0.855962,0.126405
-41.085,33.705,102.188,0.213574,0,-0.9,0,-0.853038,-0.190487,-0.485839
-63.0223,43.578,155.788,0.0619484,0,2.8,1,-0.794728,-0.60668,-0.0186507
-40.6808,59.1768,163.835,0.104346,0,-3.5,0,-0.156957,0.557205,0.815406
-47.827,48.665,159.592,-0.55836,0,1.9,0,0.986868,0.0975194,0.128766
-52.1165,39.591,104.917,0.749816,0.187232,-4.5,0,-0.261858,0.173484,-0.949386
-38.1637,51.6172,138.483,-0.647848,-0.809188,2.8,0,0.663637,-0.0150921,0.747903
-30.04,45.3625,92.568,-1.27719,-0.463716,-0.8,0,-0.0955327,-0.224538,-0.969771
-54.9128,51.885,141.014,-1.54212,-0.18326,-1.44122,1,-0.848439,0.429877,0.308798
-50.2578,68.9713,142.621,0.65386,0,-4.5,1,-0.703672,0.17663,-0.688221
-47.4808,31.5597,117.492,0.601222,0.583529,1.8,0,-0.527801,-0.690784,-0.49421
-39.7355,74.2775,150.294,-0.0104006,0,4.2,0,0.378077,-0.181298,-0.907849
-52.4075,47.8273,167.85,0.146267,0,1.8,0,0.344618,-0.43244,0.833207
-53.21,62.1705,141.117,0.41296,4.49966e-05,-3.5,1,-0.739625,0.149562,-0.656191
-21.0868,40.0378,114.869,-0.232306,0,-4.5,0,0.443795,0.0353144,0.895432
-68.2158,64.9365,162.594,0.727668,0,1.9,0,-0.842667,0.419257,0.33784
-60.7902,51.1948,150.618,0.987291,0,1.8,1,0.123185,0.320852,-0.939085
-66.4423,72.9853,153.573,0.00136195,0,-3.5,0,0.655671,0.748878,0.0963228
-50.3312,60.515,171.783,-0.124529,0,-0.7,0,0.927758,-0.0928538,0.361447
-58.443,60.7637,145.502,-2.14552,0,-3.5,1,-0.880415,-0.169209,-0.442986
-37.6695,24.3113,119.71,-0.0836408,0,1.8,0,0.0692137,-0.955344,0.287275
-41.1265,76.2455,135.304,0.00786067,0,1.11985,0,0.50937,0.497152,-0.702412
-35.2975,57.7537,159.246,0.0819568,0.00161936,-4.5,0,0.158215,0.19707,0.967539
-52.6825,60.593,138.561,-0.190164,-0.45885,2.30418,1,-0.983584,0.169874,0.0608649
-27.827,26.9365,107.713,-0.465616,-0.548552,-4.5,0,0.654363,-0.653089,0.38116
-36.6502,60.8582,157.003,0.414312,0,-4.5,0,0.45157,0.892082,-0.0165507
-36.0995,64.1517,153.043,0.582974,0.628579,-3.5,0,0.0863394,0.686771,0.721728
-46.7155,45.1235,126.391,0.12823,0,-4.5,1,-0.0915628,0.994418,0.0524362
-46.9225,42.0827,115.849,0.393044,0,4.2,1,-0.449862,0.563301,-0.693048
-40.26,73.099,150.234,-0.151963,0,4.2,0,0.34718,-0.119999,-0.93009
-36.4302,73.79,161.191,-0.139138,0,-3.2,0,0.778372,0.593961,0.203338
-40.4637,21.1735,113.796,-0.847495,-0.124978,-0.4,0,-0.0734219,-0.966657,0.245323
-20.641,43.9815,99.133,0.389866,0,1.8,0,0.433669,-0.695042,-0.573453
-34.173,22.2475,102.872,0.0359716,0,-4.5,0,-0.167027,-0.764022,-0.623195
-34.113,42.6053,92.321,-0.0363108,0,-3.5,0,0.335697,-0.0123143,-0.94189
-22.5655,43.0798,97.979,1.06553,0,1.9,0,0.927091,-0.263891,-0.266204
-42.6405,80.5088,152.36,-0.0454773,0,-1.6,0,0.0649625,0.917268,0.392937
-37.2007,69.9745,133.19,-0.30459,0,-4.5,1,-0.152648,-0.913877,-0.376202
-14.973,31.1415,106.647,-0.00648349,0,1.8,0,0.666657,-0.624036,-0.407612
-50.3363,78.9405,137.909,-0.974223,-0.219618,0.675237,0,-0.831297,-0.135325,-0.539104
-36.1185,27.2605,105.144,0.0567596,-0.285111,-2.21216,0,-0.69462,-0.648382,0.311615
-39.947,29.236,125.061,-0.93061,0,-3.5,0,-0.0762889,-0.183028,0.980143
-44.9625,36.728,147.15,-0.578261,-0.577855,-0.8,0,0.803087,-0.2457,0.542847
-29.867,47.0455,118.808,-0.644128,-0.502,1.73288,1,-0.483607,0.874072,-0.0460612
-32.7272,48.1845,129.564,-1.27649,-0.171293,-3.5,0,-0.914613,0.244753,0.321836
-32.9552,48.5073,103.727,-0.0251318,0,-0.4,1,-0.683538,0.59686,-0.420159
-51.204,65.9573,142.3,0.531066,0,-2.66879,1,-0.754656,0.478701,-0.448708
-32.124,49.711,96.2465,-0.928259,-0.736868,-0.8,1,-0.0207599,0.324984,0.945492
-35.9543,62.022,139.092,-0.0860768,0,3.8,0,0.703186,-0.594591,0.38986
-17.7175,50.3785,96.654,-0.967429,-0.707992,-3.5,1,0.448496,0.836863,0.313865
-65.7738,75.1407,164.107,1.36661,0.124482,-0.7,0,-0.26636,0.15976,0.950541
-29.6575,51.001,114.805,0.319816,0.0688848,-0.7,1,-0.542721,0.768041,-0.339952
-38.239,69.5472,157.644,-0.143377,0,-3.2,0,0.224737,-0.618347,-0.753087
-44.2202,38.3032,146.844,-0.32347,0,-0.8,0,0.884057,-0.0556531,0.464055
-63.5897,56.8372,173.459,0.0214982,0.171539,-3.5,0,-0.300807,0.0685762,0.951216
-34.125,62.202,150.234,-0.40377,0,-3.5,0,0.993859,0.0448909,-0.101136
-63.4905,54.428,169.144,0.0960079,0.283618,1.10051,0,-0.474646,-0.611684,0.632893
-26.289,52.103,97.542,-0.562666,-0.960558,-0.4,1,-0.126737,0.922679,0.364145
-37.3923,38.982,91.0605,0.405902,0.342883,-3.5,0,-0.275773,0.884804,-0.375593
-47.721,70.0993,165.342,-1.52376,-0.0375175,-3.5,0,-0.288406,-0.120003,0.949958
-43.6695,74.6202,155.806,0.246393,0.133925,3.7783,0,-0.0882583,0.548297,-0.831614
-26.5667,30.108,116.341,0.26979,0,-3.5,0,0.786728,-0.603883,-0.128002
-40.6085,46.11,139.402,-0.826924,0,-2.55826,0,0.61957,-0.274046,-0.735549
-41.6965,83.094,146.939,0.0646465,0,1.9,0,0.427,0.772758,0.469591
-38.2952,72.2988,163.312,-0.22716,0,-3.2,0,0.259693,0.101944,0.960295
-30.657,48.4787,100.981,0.767941,0,1.8,1,-0.457689,0.881234,0.118097
-30.1567,26.113,100.055,-0.859997,-0.450608,-0.4,0,-0.00784471,-0.956782,-0.2907
-61.4637,48.0822,171.058,-1.42421,-0.029484,-3.5,0,0.0646804,0.547179,0.834513
-37.7928,25.4065,111.119,-0.150588,0.0611069,-0.759009,0,0.673151,-0.705284,0.222355
-19.059,44.941,118.317,-1.65204,-0.846188,-3.5,0,0.707696,-0.704249,0.0565719
-44.3775,74.0925,132.432,1.04799,0,-4.5,0,0.78182,0.471439,-0.408048
-26.314,49.363,120.731,-0.341556,0,-3.5,1,-0.452052,0.765435,-0.457993
-42.2655,80.1428,153.583,-0.00789831,0,-1.6,0,0.117352,0.712528,0.691761
-68.1175,56.343,155.083,-0.133532,-0.0331319,3.67553,1,0.683238,-0.338401,-0.647048
-48.0493,72.6162,128.669,0.584253,0.0231616,-4.5,0,-0.408898,0.347842,-0.843687
-25.6192,45.444,122.592,0.431706,0.453096,-3.5,0,0.404122,-0.912613,0.0618275
-57.749,49.5137,171.232,0.0450549,0,-4.5,0,-0.401562,-0.809692,0.427957
-57.8993,45.3872,145.589,-0.458993,0,-3.5,1,-0.455658,-0.000774963,-0.890154
-34.401,74.2607,154.792,-0.0550148,0,-0.4,0,0.968152,-0.0174529,0.249755
-37.1432,55.641,155.301,-0.0108804,-0.370707,-4.5,0,0.401914,-0.824979,0.397335
-35.9065,53.5375,144.134,-1.464,-0.277794,-0.7,0,0.63848,0.142521,-0.756327
-50.5485,85.032,139.837,0.385138,0,-1.6,0,0.105074,0.409895,-0.906061
-47.4845,25.005,110.987,-0.00217682,0,4.2,0,-0.953399,0.0717443,-0.29306
-24.906,45.949,118.675,-0.150324,-0.272686,-3.5,0,-0.109708,-0.971292,0.211083
-19.3603,47.1823,118.154,-1.58834,-0.709179,-3.5,0,0.695824,0.716506,-0.0494833
-41.2492,71.4915,146.967,0.0170154,0,-3.2,0,0.492045,0.587689,0.642272
-33.2075,72.4595,141.709,-1.78363,-0.22753,4.2,0,0.371914,0.728257,0.575605
-38.2135,55.72,163.632,-1.3236,-0.413714,-3.5,0,0.303875,-0.889458,0.341356
-51.9415,82.304,139.36,0.104138,0,-1.6,0,-0.415547,-0.420806,-0.806376
-45.6535,44.6818,122.64,0.299279,0,2.8,1,-0.167521,0.961777,0.216616
-34.9195,47.7425,101.352,-0.913642,-0.18039,-3.5,1,-0.316542,0.673163,0.66832
-70.2103,72.1732,150.043,-1.73415,-0.306413,-3.5,0,0.312502,-0.176984,-0.933284
-43.1785,44.341,125.385,-0.42955,-0.420438,-3.5,1,0.327059,0.477191,-0.815672
-73.2113,55.3672,150.811,-1.66288,-0.694899,-3.5,0,-0.651945,-0.51861,-0.553184
-55.1442,64.5823,173.269,0.335566,0,3.8,0,-0.676183,0.44573,0.586601
-62.541,44.0955,165.464,-0.511869,0,-1.6,0,-0.647245,-0.747671,-0.148533
-67.4372,49.7223,147.007,-1.61704,-0.410953,-3.5,0,-0.716134,0.207309,-0.666465
-43.535,30.606,106.119,-0.651463,0,1.9,0,0.252977,-0.170466,-0.952336
-30.9285,44.8172,92.9675,-0.405192,-0.271225,-2.09708,0,-0.408221,-0.0841889,-0.908993
-34.7015,24.1723,101.523,0.0344176,0.253888,-3.84992,0,-0.418743,-0.820691,-0.388743
-48.51,57.4025,133.976,0.0196455,0,-0.7,1,0.330235,0.799405,-0.501893
-40.336,33.4318,144.426,-0.112045,0,-0.9,0,0.679994,-0.639156,0.359287
-42.0913,51.108,134.366,-0.0111813,0,-1.6,1,-0.284026,0.670707,-0.685188
-33.6442,73.2607,139.333,-2.20292,-0.42573,4.2,0,0.0743606,0.843001,-0.532748
-31.7728,50.3875,125.235,-0.55435,0,3.8,1,0.541315,0.802055,0.252362
-26.5212,30.139,100.06,0.0459089,0,1.8,0,0.789653,-0.613351,-0.0157702
-35.115,67.8027,140.244,-1.28388,0,2.76615,0,0.182571,-0.924644,-0.334218
-53.683,42.5933,141.269,0.434952,0,-4.26241,1,0.0689912,-0.537947,-0.840151
-43.5117,54.4787,138.584,0.0282382,0,1.45112,1,0.13201,0.2859,-0.949123
-20.141,50.102,95.3173,-0.588817,-0.670999,-3.5,1,-0.072623,0.677881,-0.731576
-51.486,76.1205,153.135,-0.295314,0,-3.5,0,0.502813,-0.0303191,-0.863864
-50.2355,37.9165,142.148,-0.326346,0,-3.09535,1,-0.720452,-0.317625,-0.616493
-61.2745,53.4785,170.428,0.390734,0,-4.5,0,-0.69887,-0.576103,0.423893
-64.471,55.719,171.638,-0.433584,0,-3.5,0,-0.90843,-0.41289,0.0653955
-29.155,38.5565,129.016,-1.09737,-0.613504,-0.4,0,0.206941,0.673233,0.709882
-38.6135,27.2763,124.691,-0.437727,0,-3.5,0,-0.679148,-0.498262,0.538974
-28.5443,45.2308,92.9453,-1.26814,-0.214244,-0.8,0,0.10287,-0.268655,-0.957728
-50.0705,61.1123,135.614,-0.202265,0,2.8,1,-0.0999021,-0.239864,-0.965653
-32.6605,71.306,142.348,-0.636813,0,4.2,0,0.461994,0.703582,0.539939
-44.4683,38.8155,143.557,-0.63623,-0.458165,-0.7,0,0.9886,-0.134503,0.0676715
-30.4405,31.008,123.874,-0.253185,-0.0367841,-3.5,0,0.299702,-0.552967,0.777436
-40.4258,21.5222,115.256,-0.995381,-0.134231,-0.4,0,0.183063,-0.891692,0.413972
-43.0305,51.297,135.734,0.170833,0,1.07936,1,0.395113,0.91842,-0.0197402
-50.0252,45.006,125.255,0.990078,0,-4.5,1,-0.512224,0.855049,-0.0807285
-40.2705,37.414,142.76,-0.193277,0,-0.9,0,0.505302,0.795664,0.334048
-33.719,57.9,158.455,0.130816,0.0679847,-4.5,0,0.472081,-0.129282,0.872024
-51.1037,66.8002,142.929,0.920691,0,-4.5,1,-0.647486,0.265139,-0.714467
-53.507,42.3348,158.189,1.651,0.491484,-2.04975,0,-0.217598,-0.961398,0.168418
-35.488,35.045,91.717,0.313924,0,-3.5,0,-0.0442221,-0.686779,-0.72552
-48.9458,34.2878,122.785,-0.431602,-0.427727,-1.3,0,-0.875202,-0.476644,0.0826605
-40.6495,30.0972,125.196,-1.06747,-0.475228,-3.5,0,-0.00924641,-0.265899,0.963957
-44.642,40.661,146.783,-0.742646,-0,-0.7,0,0.865581,-0.0982675,0.491033
-43.203,60.431,165.023,-0.227887,0,-3.5,0,0.953977,0.0285347,0.298519
-48.1046,34.7686,103.594,1.27152,0.35026,-4.5,0,0.737018,-0.063557,-0.672878
-47.4045,45.1085,125.532,0.294554,0,-4.5,1,0.308798,0.927431,-0.210986
-33.7675,26.0072,125.055,-1.69823,-0.57801,-3.5,0,0.580778,-0.813734,-0.0231081
-51.8835,64.393,135.167,-0.173998,0,2.8,1,-0.425337,-0.103723,-0.899072
-56.9815,60.7195,173.807,-0.42888,-0.0420982,-0.846725,0,-0.535514,0.588462,0.605753
-29.024,48.787,121.938,-0.190299,-0.849072,-0.7,1,-0.37879,0.882761,-0.277941
-37.2817,36.507,133.172,-1.08878,0,-3.5,0,-0.645365,0.244672,0.723629
-40.5768,51.7065,157.539,-1.27793,-0.0292459,-0.4,0,0.727504,-0.440085,-0.526367
-28.6318,27.2992,110.762,0.580964,0.198062,-1.84803,0,0.613678,-0.763779,0.200105
-37.673,38.2535,90.1725,0.217278,0.509735,-3.5,0,-0.0903423,0.347498,-0.933318
-65.3023,57.8787,154.492,-0.17474,0,1.8,1,-0.0706963,-0.780219,-0.621498
-59.4243,62.7062,148.029,-0.49041,0,-3.5,1,-0.881025,-0.0133136,-0.472882
-20.641,40.036,104.64,0.138372,-0.017915,1.9,0,0.621873,0.393865,-0.676864
-65.1365,72.9173,158.598,-0.471489,-0.179558,-0.91521,0,0.150916,0.119231,-0.98133
-39.7637,52.0667,125.61,0.0572851,0,-1.3,1,0.132004,0.655134,-0.743891
-39.1982,48.087,136.565,-0.525479,0,2.8,0,0.184678,-0.982795,-0.00271734
-47.5633,33.7158,138.885,-1.4297,-0.205889,-0.9,1,-0.415871,-0.909312,0.0142453
-41.3035,40.4205,137.395,-0.923589,-0.950934,1.9,0,0.455561,0.0162456,0.890056
-51.876,46.845,167.225,0.123128,0,1.8,0,0.69967,-0.268299,0.662177
-55.6198,63.546,173.389,0.191935,0,3.8,0,-0.748068,0.311418,0.586014
-45.6362,54.586,135.07,-0.0531024,0,3.8,1,0.348605,0.935873,0.05115
-32.663,30.987,124.062,-0.105346,0.118945,-3.5,0,0.16019,-0.0333401,0.986523
-35.0052,65.1005,145.811,-0.181027,0.0946385,-0.800031,0,0.922993,0.318735,-0.21562
-54.0805,52.966,143.501,-1.29215,0,3.8,1,-0.959713,0.0370032,0.278534
-41.9007,45.4302,137.316,-1.10012,-0.0143743,-3.9,0,0.98112,0.0277043,0.191405
-54.2588,66.4845,172.204,-0.881839,-0.669268,3.8,0,-0.205815,0.948754,0.239804
-69.9088,52.417,164.448,-0.306841,0,-3.5,0,-0.288694,-0.202781,0.9357
-53.0552,64.1875,136.111,0.0868138,0,2.8,1,-0.823675,0.148413,-0.547297
-27.9363,31.615,93.93,0.0216205,0,1.8,0,0.784773,-0.175073,-0.594543
-64.813,67.0573,146.341,-0.159113,0,-3.5,0,0.580304,0.351156,-0.734804
-32.752,50.3602,135.23,-0.255686,0,2.8,0,0.881409,-0.29879,0.365846
-37.2625,47.7045,133.684,-0.482511,0,2.8,0,-0.172847,-0.982648,-0.0672806
-40.4595,37.2575,134.814,-0.0729837,0,1.9,1,0.998366,-0.0526987,-0.0221174
-65.7665,68.0983,156.372,-0.130916,0,3.8,0,0.128173,0.823002,0.553389
-37.9365,42.4538,92.7585,-0.0432069,0,-3.5,0,-0.762283,-0.446964,-0.468132
-43.335,60.2055,166.999,-0.902378,0,-3.5,0,0.85069,0.0956258,0.516897
-31.1665,22.3563,106.642,0.495576,0.643794,-4.5,0,0.443608,-0.535631,0.718548
-47.1567,50.9857,163.265,-0.16206,0,4.5,0,0.959186,0.109575,-0.260681
-38.9845,68.6377,157.698,-0.727045,0,4.5,0,0.607312,-0.0327492,-0.793788
-61.8415,45.718,159.559,0.0684855,0,2.8,1,-0.773131,-0.32467,0.544847
-38.5605,75.8765,137.339,0.0963517,0,1.8,0,0.471265,0.334248,-0.816203
-28.0455,42.0545,122.964,0.351708,0.0947347,-4.5,0,0.845198,-0.226165,-0.484241
-64.7617,44.1652,151.076,0.0161915,0,-0.7,1,-0.0737981,-0.828478,0.555138
-38.0742,25.8955,122.084,0.111648,0,1.24517,0,-0.265145,-0.956651,0.120489
-40.0137,28.1022,101.035,-0.139831,0,-0.7,0,-0.116736,-0.532705,-0.838211
-47.0192,63.5482,170.383,0.199084,0,-3.2,0,0.519993,-0.0351781,0.853446
-35.383,50.4393,95.7555,-1.07312,-0.098654,-3.5,0,-0.328182,0.745967,-0.579508
-52.2215,71.2925,148.383,0.00614897,0,-1.3,0,-0.502836,0.261367,-0.823919
-56.6043,76.004,150.032,0.693455,0.619497,-4.5,0,-0.00702879,0.983301,0.181849
-66.261,47.7365,153.977,0.440344,0.00428363,-0.7,1,-0.793523,-0.296154,0.531615
-47.546,65.3678,167.803,-0.682307,0.0834255,-3.2,0,0.0518828,0.906409,0.419204
-51.4915,58.5855,173.857,-0.528102,0,3.8,0,0.393557,-0.162249,0.904869
-56.4663,61.9453,144.15,-2.45143,-0.854799,-3.5,1,-0.276573,-0.33924,-0.899124
-39.484,53.4755,127.57,-0.0901751,0,-1.3,1,0.345077,0.867242,-0.358907
-65.27,56.3625,167.942,-0.212759,0,4.5,0,-0.714542,-0.0801358,0.694988
-78.0533,64.9112,156.207,0.0296004,0,4.2,0,-0.839448,-0.276269,0.467978
-37.1955,73.062,134.749,0.0781608,0,-4.5,0,0.593969,0.750657,0.289334
-47.1562,44.803,118.253,0.16357,0,4.2,1,-0.593726,0.804213,0.027041
-66.7385,66.9512,146.178,0.51242,0.425095,-3.5,1,-0.648397,0.0991622,-0.754817
-37.5225,68.8692,158.082,-0.165102,0,0.651701,0,0.551007,-0.412509,-0.725415
-43.9808,38.965,98.2655,0.661913,0.0548703,-4.5,0,-0.693404,0.213725,-0.688122
-34.991,33.464,131.929,-1.61896,-0,-3.5,0,0.833339,-0.546441,-0.0833584
-30.931,29.021,121.303,-0.215984,0,-3.5,0,0.456909,-0.886294,-0.0756116
-58.5008,44.1707,141.018,-0.290858,0,-4.5,1,-0.614567,0.638991,0.462599
-74.3057,73.0263,158.485,0.249187,0,-4.5,0,-0.325531,-0.0767275,0.942413
-46.1603,38.609,138.551,0.231605,0,-0.4,1,-0.911542,0.410567,0.0229297
-68.871,55.491,164.316,-0.543236,0,-3.5,0,-0.495191,0.00130833,0.868783
-66.108,58.6315,153.89,-0.190545,0,2.00509,1,0.0322076,-0.707699,-0.70578
-48.882,43.481,128.677,0.360518,0,-4.5,1,-0.692018,0.267073,0.670659
-50.642,45.051,132.706,0.338393,0,-3.5,1,-0.224826,-0.806631,-0.546626
-26.3013,29.1275,102.445,0.279626,0,1.8,0,0.655723,-0.754485,-0.0279359
-65.7923,52.0993,167.574,-0.0715183,0,4.5,0,-0.517395,-0.231256,0.823907
-42.1625,53.9328,152.458,-0.602533,0,4.5,0,0.0817282,-0.975666,0.203459
-48.7617,39.38,125.077,0.43614,0,2.8,1,-0.44136,-0.883509,0.156883
-35.398,50.347,146.141,-0.407275,0,-0.7,0,0.291996,-0.628203,-0.721179
-47.1975,33.0545,133.714,0.0462392,0,-1.6,1,-0.338078,-0.894108,0.293726
-25.3865,45.9622,117.105,-0.430423,0,-3.5,0,-0.269096,-0.955057,0.12431
-65.8885,68.8102,147.09,0.022524,0.0525034,-3.5,0,-0.0195987,0.64296,-0.765649
-40.411,53.1235,133.849,-1.56092,-0.233815,4.5,1,-0.907248,0.312194,-0.281843
-42.0755,46.544,113.607,-0.00133899,0,-3.5,1,0.17597,0.852758,-0.491771
-49.1517,77.2838,136.813,0.526454,0,-0.7,0,-0.840324,-0.514913,-0.169467
-45.2845,70.3727,128.418,0.599774,0.422005,-4.5,0,0.275647,-0.612732,-0.74066
-61.7067,52.6842,149.141,0.182827,0,-4.33068,1,0.756459,-0.555019,-0.346011
-42.164,84.053,144.008,0.200807,0,1.9,0,0.0226166,0.982781,0.183386
-40.9015,38.636,141.371,0.0644194,0.0939197,-0.9,0,0.344285,0.91188,0.223478
-76.754,57.1555,157.72,0.00533187,0,1.8,0,-0.905661,0.256928,-0.337293
-76.0107,68.5393,156.998,-0.0968931,0,4.2,0,-0.369323,0.632486,0.680854
-34.2335,67.614,140.688,-0.396585,0,4.2,0,0.0686366,-0.93539,-0.346894
-44.703,30.664,125.248,-1.01433,0,1.9,0,-0.291046,-0.564782,0.772213
-27.4935,36.823,119.051,-0.0758069,0,4.5,0,0.982665,-0.0194366,0.18437
-35.627,50.0192,97.8863,-0.662448,-0.914941,-3.5,1,-0.221211,0.790812,0.570685
-46.32,78.153,150.76,0.147473,0,-1.6,0,-0.899596,-0.424672,-0.101884
-40.3073,56.2827,135.561,-1.70615,-0.0927933,-1.6,1,-0.295505,0.546075,-0.783887
-56.5703,57.9027,148.265,-1.12323,-0.142496,-0.7,1,-0.583706,-0.135423,-0.800592
-48.7552,34.0923,124.274,-0.475231,-0.48568,-1.3,0,-0.745791,-0.594738,0.300139
-51.6505,72.7085,161.87,-0.12384,0,-3.29891,0,0.65268,0.286596,0.701336
-50.6698,57.3305,173.46,-0.97979,-0.487468,3.8,0,0.516343,-0.25598,0.81723
-38.3918,33.2757,125.851,-0.328598,0,-1.6,0,0.585581,-0.802297,0.115823
-46.94,54.724,135.674,-0.164556,0,-0.7,1,0.60979,0.778733,0.147414
-62.261,54.4165,171.358,0.673778,0.332328,-3.5,0,-0.176772,-0.908926,0.377632
-20.3225,49.2767,124.908,-1.76215,-0.491773,-3.5,0,0.680197,0.729648,0.0703317
-36.4175,56.0602,133.216,-0.131985,0,4.5,1,-0.110627,0.680936,-0.723939
-32.3295,24.9918,113.037,-2.18082,-0.4735,-3.5,0,-0.227814,-0.956937,-0.179923
-44.263,37.3413,143.252,-0.931587,-0.424185,-0.7,0,0.772304,0.429054,0.468464
-47.5205,47.7265,159.061,-1.04296,0,1.9,0,0.907534,0.403813,-0.115397
-47.5687,75.138,161.72,-1.5907,0,-3.5,0,-0.811764,0.556417,0.177314
-46.0205,57.623,168.846,0.788528,0.404987,1.8,0,0.231062,0.330577,0.915057
-34.9225,57.3232,154.002,-0.321809,-0.477723,-3.88821,0,0.747762,-0.641979,0.169457
-42.8182,37.8828,101.761,1.17511,0,-4.5,0,-0.434162,0.729666,0.528291
-36.341,29.933,126.46,0.1128,0.0783443,-3.5,0,-0.38555,0.420296,0.821403
-34.9685,54.5215,136.603,0.00580335,0,4.5,0,0.284612,-0.177107,0.942141
-63.7605,52.6065,149.928,0.274377,0.0127187,-4.5,0,-0.829665,0.427404,0.359141
-35.3058,62.9582,139.258,-0.109296,0,3.8,0,0.784711,-0.119445,0.608245
-39.772,47.711,140.654,-0.562264,-0.0445596,-1.6,0,0.979026,0.196691,-0.053111
-47.4927,65.7667,166.468,-0.312896,0.374042,-3.2,0,0.0259631,0.84407,0.535604
-38.0542,74.4013,159.041,0.634503,0.646065,-3.2,0,-0.291981,0.955385,-0.0445766
-35.0695,55.9473,149.982,-1.15055,-0.440963,-0.7,0,0.92447,0.375808,0.0642134
-27.471,50.2057,122.152,-2.02298,-0.0927614,-0.7,1,-0.268446,0.953742,-0.135324
-65.1233,76.1202,163.123,0.48193,-0.408048,-0.7,0,0.069171,0.865324,0.496416
-38.0695,28.4632,100.97,-0.357431,0,-1.0371,0,-0.235962,-0.89224,-0.385006
-44.3705,37.0665,146.133,-0.277214,-0.0536304,-0.8,0,0.988624,-0.0680025,0.13416
-43.9922,30.244,120.749,-0.0483876,-0.0141719,-2.14214,0,-0.3081,-0.950778,0.0330904
-27.6397,28.3223,92.6862,-1.1292,-0.763458,-3.5,0,0.839078,-0.52409,0.145871
-30.227,47.3052,130.811,-1.49783,-0.224872,-3.5,0,0.678045,0.117165,0.725622
-35.946,74.3055,141.123,-1.86833,-0.378729,1.8,0,0.813143,0.53946,0.218588
-62.266,44.7323,167.437,0.00593845,0,-1.6,0,-0.716926,-0.689481,0.103117
-28.3455,29.293,112.238,0.0130204,0.0269816,-3.5,0,0.989997,-0.0593415,-0.127999
-40.6815,39.6395,137.337,-1.30771,-0.502142,1.9,0,0.681479,0.0658782,0.728866
-43.416,68.517,138.971,-0.0836726,0,-1.3,1,-0.42836,-0.106926,-0.897259
-58.4025,43.338,169.01,0.217477,0,-1.6,0,0.566009,-0.501763,0.654115
-46.4995,72.629,165.167,-0.369194,0,-3.5,0,-0.54458,0.360681,0.757194
-65.239,46.1408,168.369,-0.256073,0,-3.5,0,-0.825003,-0.534181,-0.184447
-43.0832,83.1947,145.902,0.38666,0,1.9,0,0.0683695,0.997547,0.0150174
-45.3095,24.5705,108.447,0.493015,0.527662,-3.5,0,-0.562127,-0.535287,-0.630461
-33.1768,48.714,104.906,-0.0215498,-0.0224263,-0.722171,1,-0.785998,0.612648,-0.0828814
-35.9065,39.6065,91.4875,-1.41122,-0.86722,-3.5,0,-0.132477,0.732486,-0.667767
-37.08,38.7207,131.932,-0.395127,0,-3.5,0,0.633522,0.571747,0.521302
-42.9897,31.5905,131.361,-0.132003,0,1.9,0,0.454951,-0.873699,0.172247
-35.3845,33.7195,130.596,-1.49506,-0.279479,-3.5,0,0.635165,-0.608764,-0.475365
-21.6985,45.3035,123.789,-1.4857,0,-3.5,0,0.325853,-0.698599,-0.637008
-28.9872,32.201,91.0362,-0.25231,0,-3.5,0,0.70498,0.154215,-0.692258
-78.5827,65.8102,155.519,0.00894692,0,4.2,0,-0.997854,0.0106805,0.0645973
-33.201,26.4303,117.576,-0.24602,0,-2.68074,0,0.0915097,-0.800868,0.591807
-26.7865,39.94,117.012,0.00424858,0,4.5,0,0.896544,0.403617,0.182491
-52.788,40.0477,153.132,-2.34557,-0.348593,-3.5,0,-0.466315,-0.874181,0.135493
-33.3945,21.9275,106.657,0.482933,0.149044,-4.5,0,-0.465663,-0.431172,0.772818
-47.4497,38.6268,105.819,0.148323,-0.400325,1.74906,1,0.0337509,0.420231,-0.906789
-65.988,76.5133,161.021,0.101463,0,-0.7,0,-0.423,0.901995,-0.0864679
-67.0125,45.317,147.916,-0.174165,0,-0.7,0,-0.363275,0.00823689,-0.931646
-41.5235,21.3542,109.775,-1.61912,-0.0481905,-0.4,0,-0.0857862,-0.93104,-0.354691
-37.5988,51.3187,149.445,-0.0613345,-0.133516,-0.7,0,-0.554678,-0.520911,0.648832
-49.4917,40.0233,119.802,0.295865,0,2.98539,1,-0.883021,-0.463992,-0.0706068
-46.4357,33.7393,138.376,-1.02125,0,-0.9,1,0.0183404,-0.989322,-0.144591
-60.3025,49.1268,147.647,-0.95132,0,-3.5,1,-0.339212,0.191899,-0.920929
-42.6268,59.381,135.656,0.0419505,0,-1.6,1,-0.0320784,-0.106421,-0.993804
-27.9135,25.9495,105.586,0.0129199,0,-4.5,0,0.857321,-0.492087,0.151162
-63.3975,66.598,167.698,-0.126225,0,-0.7,0,-0.329267,-0.244048,0.912154
-73.428,69.942,158.324,0.0887027,0.0383819,-4.5,0,-0.57758,0.0103264,0.816269
-16.8845,49.6572,97.0147,0.171844,0.279263,-3.5,1,0.667733,0.742694,0.0503754
-35.3252,61.262,145.959,0.144837,0.200636,-3.5,0,0.858828,-0.502819,-0.097916
-48.7235,34.919,116.041,-0.0829335,-0.00727109,4.5,0,-0.67434,-0.386232,0.629357
-64.145,46.5825,154.858,-0.328861,-0.0438941,0.882335,1,-0.462796,-0.884102,0.0646881
-55.747,54.7535,142.755,-2.07488,-0.00801443,-3.5,1,-0.753723,-0.469574,0.459785
-37.3052,29.4942,125.742,-0.0322485,0.116682,-3.5,0,-0.429879,0.29911,0.851902
-60.0107,67.6267,147.543,-0.12525,0,-0.52153,0,-0.7489,0.158653,-0.643411
-32.2785,49.8745,126.73,-0.302299,0,2.9112,1,0.58459,0.715623,0.382281
-53.2455,66.246,173.471,-1.67016,-0.391915,3.8,0,0.26448,0.881465,0.391241
-66.569,64.6215,165.781,0.628601,0,1.9,0,-0.470205,0.292076,0.832826
-34.4717,50.585,137.239,-0.139254,0,2.8,0,0.543173,-0.0879236,0.835004
-27.124,27.4823,107.146,-1.31316,-0.63072,-4.5,0,0.92346,-0.27144,0.271186
-64.292,54.484,147.083,0.0990733,0.309307,-4.5,1,-0.898107,-0.0367492,-0.438238
-57.41,59.634,174.988,-0.103285,0,-0.4,0,-0.369345,0.287164,0.88381
-51.6217,63.783,139.638,0.0447208,-0.747764,0.00215516,1,-0.813536,0.575278,0.0849306
-68.3532,74.1442,153.783,0.569103,0.583535,0.340719,0,0.450772,0.89211,-0.0307206
-48.4485,63.86,170.577,0.0422797,0,-3.2,0,-0.0811686,0.218535,0.972448
-29.0788,26.9778,98.0957,-0.0293007,0,-0.4,0,0.107048,-0.912615,-0.394556
-30.2095,29.6747,89.8262,0.0722194,0,-3.5,0,0.262345,-0.151907,-0.952942
-58.397,41.883,158.533,0.0925333,0,-0.7,1,-0.498322,-0.860587,-0.105189
-52.38,40.639,141.125,-0.0639193,0,-3.5,1,-0.552206,-0.576797,-0.601975
-23.453,31.7607,107.747,0.728741,0.0322712,-0.923263,0,-0.22698,-0.786116,0.574893
-47.9975,69.0425,164.707,-0.690602,-0.941043,-3.5,0,-0.41554,-0.212938,0.884299
-46.259,32.726,124.728,0.49169,0,1.9,1,-0.678363,-0.296153,0.672397
-48.9154,64.48,169.931,-0.122548,0,-3.2,0,-0.171169,0.748401,0.640778
-61.668,52.9318,169.149,0.264018,0,-4.5,0,-0.636313,-0.529545,0.560971
-22.6716,40.582,100.614,0.336644,0,-0.9,0,0.711991,-0.219713,-0.666929
-36.3075,50.9067,127.068,-0.245787,0,3.8,1,-0.167118,0.977182,0.131101
-71.7644,64.9725,162.068,1.2412,0.00185225,1.78169,0,0.159501,0.486388,0.859061
-43.8174,64.1229,161.318,-0.0180545,0,-1.3,0,0.894698,0.188207,0.405085
-36.341,30.8487,125.547,0.272217,0.695425,-3.5,0,-0.139376,0.881969,0.450228
-25.247,38.6795,96.9685,-0.181904,0,-3.5,0,0.89916,0.326852,-0.290997
-39.4152,66.5362,154.769,-0.157332,0,1.8,0,0.780622,0.624868,0.0130185
-51.5197,43.222,124.624,0.350913,0,-4.5,1,-0.799258,0.488828,0.349621
-49.7038,32.4046,103.413,0.849942,0,-4.5,0,0.11496,-0.287377,-0.950894
-59.6755,53.052,149.598,0.401776,0,-4.5,1,-0.378024,-0.830904,-0.408285
-19.2359,33.9911,110.529,-0.223131,-0.529113,-3.5,0,0.857308,-0.228745,0.461194
-33.989,48.8655,131.711,-0.487022,0,2.8,0,0.445648,-0.548541,-0.70746
-44.4365,73.7478,131.336,1.80954,0,-4.5,0,0.771714,0.524831,-0.359178
-42.8121,75.2935,152.517,0.141927,0,4.2,0,-0.480923,-0.00134209,0.876762
-26.929,39.5149,94.9096,-0.747299,-0.679286,-3.5,0,0.562819,0.222601,-0.796043
-42.529,71.2675,165.402,0.124163,0,-1.6,0,0.221499,-0.392774,0.892562
-38.1652,51.9246,127.846,-0.78588,0,-1.3,1,0.776018,0.580716,-0.246101
-46.6065,40.9915,134.245,-0.0488607,0,1.8,1,-0.0671703,0.013929,0.997644
-39.8415,60.2179,163.25,0.360866,0.312145,-3.5,0,-0.200403,0.649431,0.733538
-48.3105,41.8898,131.732,0.423193,0,1.8,1,-0.863469,0.503899,0.0224921
-27.048,49.83,92.7404,0.453861,0,-3.5,0,-0.304472,0.707929,-0.637286
-46.9004,49.7865,163.277,-0.16882,0,4.5,0,0.977182,0.0339857,-0.209667
-54.1395,45.9305,163.927,0.568907,0,1.8,0,0.115587,-0.972773,-0.200881
-14.5997,32.6842,107.855,-0.0648021,0,1.8,0,0.850445,0.223011,0.476455
-40.7011,21.3406,110.657,-0.319088,-0.163578,-0.4,0,0.0438686,-0.970992,-0.235052
-64.4341,47.3785,161.854,0.159202,0,-1.6,1,-0.16356,-0.768774,0.618252
-32.7163,25.009,99.9962,0.20702,0,-3.2,0,0.430345,-0.702727,-0.56655
-15.3663,36.4562,105.447,0.298277,0,1.8,0,0.38111,0.0759206,-0.921407
-56.23,53.6646,149.145,-1.14301,0,3.8,1,-0.518394,0.30012,-0.800747
-35.5086,67.2943,162.606,-0.0726464,0,-1.6,0,0.680199,0.731754,-0.04319
-58.5325,63.4005,146.982,-0.62205,0,-3.5,1,-0.748161,0.457093,-0.480958
-43.8681,81.5967,139.112,0.308742,0,4.5,0,0.395909,0.757871,-0.518544
-47.8638,44.0924,155.181,0.0188382,0,-4.5,0,0.603674,-0.759995,0.240802
-54.6895,57.2146,141.807,-2.38233,0,-3.5,1,-0.362149,0.899831,-0.243214
-50.5005,61.0961,174.186,-0.140092,0,3.8,0,0.895274,-0.367682,-0.251583
-41.5952,76.3246,142.917,-0.635901,0.169441,2.55069,0,0.910756,0.36127,-0.20002
-31.5279,52.4891,108.644,0.361875,0,-1.6,1,-0.0686272,0.996397,-0.0498298
-38.3903,54.2713,142.911,0.278012,0,-1.6,0,0.364163,-0.871326,-0.3289
-27.1086,29.2424,99.47,-0.139437,-0.124895,1.8,0,0.796019,-0.581094,0.169363
-20.5818,47.2627,117.221,-0.933097,-0.0394012,-3.5,1,0.407761,0.485835,-0.773108
-41.6746,43.8296,148.596,-0.17861,0,-3.5,0,0.241222,-0.621429,0.745411
-47.151,61.9287,136.551,0.242213,0,2.8,1,0.922326,-0.306956,-0.234718
-44.2811,37.0071,145.042,-0.227177,0,-0.8,0,0.94763,0.309749,0.0777964
-63.6415,59.1177,167.796,0.289576,0,-3.42553,0,-0.415768,0.871306,0.260698
-48.3493,33.4341,133.108,0.583513,0,-1.6,1,-0.344388,-0.938379,0.0290066
-42.019,50.7132,126.391,-0.454931,0,-1.6,1,-0.515089,0.851644,-0.0968805
-35.3579,24.1203,103.785,0.206042,0,-4.5,0,-0.869387,0.237555,0.433283
-70.954,55.9725,163.41,-0.0846521,0,-3.5,0,-0.741294,0.296815,0.601984
-36.9469,75.9191,138.937,-0.129407,0,1.8,0,0.940085,0.217382,-0.262649
-59.0186,48.527,170.351,-0.0653812,0,-0.7,0,0.215204,-0.212786,0.953105
-47.4324,73.3336,134.409,0.659025,0,-4.5,1,-0.680385,-0.594884,0.428006
-27.5369,28.1737,99.7414,0.468752,0,-0.4,0,0.909978,-0.40872,-0.0699165
-74.5993,56.9956,159.942,0.0335445,0,1.8,0,-0.156598,0.275996,0.948316
-45.2489,66.8353,167.593,-0.682882,0,-0.7,0,-0.596352,0.533759,0.599554
-35.6549,65.8844,146.403,-0.00650816,0,1.9,0,0.82886,0.32497,0.455396
-20.3883,39.1463,114.421,0.14506,0,-4.5,0,0.548245,-0.0105321,0.836251
-55.3937,57.2845,147.638,-1.32673,-0.0442412,-0.7,1,-0.467417,-0.193891,-0.862512
-21.2188,46.4699,101.92,0.327612,0,1.8,0,0.29656,0.306074,0.904639
-47.3556,48.7121,162.301,-0.231793,0,4.5,0,0.912859,-0.221245,-0.343132
-34.9967,37.5051,90.6998,0.101498,0,-3.5,0,-0.245368,-0.0508367,-0.968096
-34.8447,64.3495,147.991,0.0299119,0,-3.5,0,0.655863,0.684337,0.318632
-61.261,68.871,156.293,-0.175238,0,3.8,0,-0.870252,0.492096,0.0224405
-37.7803,56.3795,157.075,0.401411,0,-4.5,0,0.166864,-0.953181,0.252194
-38.2239,64.1459,154.267,0.023883,0,1.8,0,0.89588,0.0616975,0.439992
-26.501,52.145,108.997,0.0417368,0,-3.5,1,0.498061,0.69504,0.518511
-45.5895,55.323,165.029,-0.211648,0,1.9,0,0.0620817,-0.579858,-0.812349
-51.517,67.568,167.889,0.462896,0,-4.5,0,0.370648,0.839907,0.396455
-48.797,76.7617,137.862,0.687735,0,-0.7,1,-0.727488,-0.677394,0.109079
-26.6287,48.0433,124.05,0.0911773,0,-0.7,1,0.0847128,0.497199,0.863491
-46.5759,64.7113,168.679,-0.415249,0,-1.82774,0,0.464732,0.667218,0.582103
-70.4707,74.573,152.635,-0.333812,0,-3.5,0,-0.210185,0.972636,-0.098999
-56.3125,71.9084,164.789,-1.25176,0,1.8,0,0.136962,-0.0714452,0.987997
-48.289,35.4902,138.717,-1.28291,0,-0.9,1,-0.962764,0.249798,0.103373
-30.277,48.564,129.066,-1.53144,-0.102151,-3.5,1,0.691481,0.720023,0.0584854
-37.1204,61.8102,142.782,0.646758,0.963852,1.9,0,0.835412,0.0706821,-0.545061
-38.3679,65.2775,152.591,0.00393383,0,1.8,0,0.759998,0.64674,-0.064268
-41.9029,44.5594,133.299,-0.891266,-0.71478,-2.85252,0,0.598324,0.801213,0.00811671
-46.3823,38.3727,105.51,0.644512,0,1.8,1,-0.171135,0.59018,-0.788924
-71.4725,51.6138,163.218,-0.631785,0,-3.5,0,-0.672032,-0.344988,0.655253
-54.978,63.781,174.257,0.138234,0,3.8,0,-0.700133,0.472689,0.535144
-36.3348,49.6655,97.2479,-0.486798,-0.440101,-3.5,1,-0.717798,0.692945,0.0677684
-51.3475,78.3705,143.116,-0.533045,0,-1.53895,0,-0.863852,-0.434324,0.255191
-46.042,78.4465,152.26,0.129454,0,-1.6,0,-0.924186,-0.11654,0.363729
-73.235,56.862,151.369,-1.27557,-0.110875,-3.5,1,-0.559686,0.300559,-0.77228
-42.704,64.0062,160.27,0.0938557,0,2.43668,0,0.0946031,0.242897,0.965428
-44.2993,30.0961,121.737,-0.275326,0,1.9,0,-0.0563261,-0.895565,-0.441352
-39.3348,47.6215,147.626,-0.956687,-0.321426,-3.5,0,0.929784,-0.0849736,0.358165
-40.5103,31.57,99.5827,1.16118,0,-0.4,0,-0.949394,-0.191274,0.249128
-16.027,33.64,104.977,0.440306,0,1.8,0,0.695039,0.0835273,-0.714103
-48.7953,42.7709,120.643,0.0122667,0,2.8,1,-0.545812,0.76024,-0.352313
-34.3823,35.387,131.613,-0.899981,0,-3.5,0,0.936799,-0.337207,0.0932676
-40.122,49.7086,145.821,-1.48033,-0.959701,-0.8,0,0.802053,-0.00672529,-0.597215
-35.419,35.17,126.527,0.0363238,0,-1.6,0,0.744188,-0.58788,-0.317147
-33.0999,51.604,133.746,-0.262008,0,2.8,0,0.788191,0.554281,-0.267447
-38.9995,39.2695,96.078,-1.96747,-0.70553,-0.7,0,-0.891236,-0.170492,-0.420275
-38.0726,24.5059,118.043,0.424059,0,1.57433,0,-0.0317952,-0.984237,0.173971
-36.8876,51.7281,145.597,-0.976776,0,-0.7,0,-0.219772,-0.513962,-0.829183
-46.4398,72.2405,132.987,0.996437,0,-4.5,1,-0.070761,-0.911652,0.404825
-59.8765,74.1925,155.083,0.207078,0,-4.5,0,-0.685701,0.204695,-0.698508
-34.208,24.667,117.181,-0.0693299,0,1.8,0,0.289007,-0.620124,0.729329
-56.0749,54.8544,137.008,-0.22056,0,1.8,1,-0.684137,0.646095,-0.338403
-33.227,50.9805,119.39,-0.0595183,0,-1.6,1,0.934786,0.255354,0.246921
-55.931,50.63,136.349,0.887807,0,1.8,1,-0.567893,-0.354839,-0.742689
-23.4585,50.2675,121.934,-0.955266,-0.0523824,-3.5,1,0.177436,0.861507,0.475734
-28.2822,35.573,93.1425,-0.0140809,0,-3.5,0,0.866023,0.324589,-0.380324
-54.0061,60.4408,142.391,-0.433764,0,-3.5,1,-0.913893,-0.35548,-0.196046
-41.7274,33.3739,96.5336,0.926224,0,1.55633,0,-0.64303,-0.755822,-0.123471
-48.8602,30.6051,104.665,0.663457,0,-4.5,0,-0.114547,-0.827081,-0.550287
-27.1445,45.1985,120.113,-0.216968,0,-0.7,0,0.628814,-0.747463,-0.214224
-49.0519,31.4574,103.909,1.02456,0,-4.5,0,0.0701727,-0.540522,-0.838399
-43.0568,72.1715,137.317,0.44082,0,-4.5,1,-0.639186,-0.681472,-0.356424
-67.1963,52.0834,158.612,-0.310883,0,4.5,1,-0.553015,-0.83293,0.0200537
-47.935,34.9482,118.063,0.236682,0,4.04346,0,-0.955907,-0.277189,-0.0969997
-14.2507,32.217,106.685,-0.000393057,0,1.8,0,0.9711,-0.0112446,-0.238408
-37.6825,28.0382,97.5705,0.105302,0,-1.6,0,-0.782488,-0.430239,-0.450119
-48.626,33.541,113.953,-0.77163,-0.580791,4.5,0,-0.589805,-0.77695,-0.220178
-50.7028,75.8796,143.365,-0.0615884,0,3.8,0,-0.703054,-0.386187,-0.597139
-41.0288,31.155,104.557,0.379339,0.0351534,-0.134119,0,-0.970792,-0.0733428,-0.228436
-44.2911,41.543,135.928,-0.343107,-0.0868758,-3.5,1,-0.862069,-0.482013,-0.156526
-41.7772,39.6932,102.415,1.08309,0.628225,-4.5,1,-0.961525,0.268932,-0.0560819
-22.9861,48.2105,103.545,0.442886,0,-4.5,1,0.793606,-0.360269,0.490301
-19.5255,36.449,113.555,0.420516,0,-4.5,0,0.21195,-0.752811,0.62318
-38.852,67.206,148.656,-0.490886,0,-0.7,0,0.408949,0.908069,-0.0903902
-35.2062,43.8894,107.653,0.327606,0,1.50394,1,0.157961,0.958918,0.235635
-40.0385,67.369,152.577,-0.959322,0,-0.4,0,0.870281,0.48775,0.0686328
-23.6805,32.967,110.253,0.581925,0,-3.5,0,-0.501117,-0.710853,0.493529
-24.6817,38.2267,97.7785,0.160563,0,-3.5,0,0.923059,0.366099,-0.118043
-41.066,43.831,136.806,-0.107412,0.00292956,-3.9,0,0.816696,0.451473,0.359416
-39.3395,29.8215,98.2105,-0.592356,-0.0447896,-0.4,0,-0.541554,-0.776248,-0.322736
-41.7335,78.5393,142.268,-0.311483,0,4.5,0,0.99997,0.0038812,0.00672636
-37.3486,48.2375,132.78,-0.440806,0,2.8,0,-0.287099,-0.830756,-0.476884
-27.9765,29.7138,113.873,0.132919,0.00418023,-3.5,0,0.891451,-0.396841,-0.218708
-20.5556,36.2655,104.131,0.566098,0,1.9,0,0.904939,-0.0324828,-0.424301
-22.3608,32.076,102.348,0.611231,0.0607085,-1.48098,0,0.785144,-0.557425,-0.269864
-49.064,67.2828,165.516,0.174288,0,-4.5,0,0.215185,0.894467,0.39195
-55.9351,78.8206,159.81,0.0909188,0,3.8,0,-0.250186,0.930394,0.267907
-40.232,35.8638,135.002,-0.37127,0,1.9,1,0.987509,0.112515,-0.110299
-59.6526,63.1376,170.885,0.0925977,0,-3.5,0,-0.733632,0.358331,0.577394
-52.3504,71.8463,149.596,-0.219875,0,-1.3,0,-0.485302,0.857787,0.16936
-36.1109,67.9806,146.497,0.151075,0,1.9,0,0.453306,0.421635,0.785326
-37.6278,56.676,161.661,-0.36946,0,-3.5,0,0.996492,-0.0832426,0.00857252
-57.0207,47.6353,141.819,-0.146736,0,-1.6,1,-0.778805,-0.0273893,0.626667
-53.7118,57.7,141.835,-1.33081,0,-3.5,1,-0.703667,0.669672,-0.237472
-54.134,39.479,146.234,-0.243945,0,-0.4,1,-0.785183,-0.590115,-0.187757
-45.7299,69.9165,139.979,0.645525,0,2.8,1,-0.176661,-0.246837,-0.952818
-33.5395,47.6171,109.518,0.274674,0,-1.6,1,-0.911487,-0.352067,-0.212697
-27.6645,43.3978,122.868,-0.0107591,0,-1.99827,0,0.926716,-0.366368,-0.0835026
-33.066,39.0744,130.149,-0.257542,0,-3.5,0,0.560051,0.0555064,0.826597
-45.5225,75.0166,152.906,-0.580235,-0.667177,-0.7,0,0.650133,0.285577,0.704111
-44.5687,79.4199,134.46,0.778589,0,1.8,0,-0.570744,0.495948,-0.654437
-45.286,74.925,131.911,1.3858,0,-4.5,0,0.665985,0.611588,-0.427112
-47.5661,41.6592,139.685,-0.394446,0,-3.9,1,-0.617471,-0.256054,-0.743751
-37.2104,43.338,91.5974,0.416409,0.041885,-3.5,0,-0.181765,-0.66352,-0.725743
-42.1478,47.6461,134.209,-0.302996,0,-1.6,0,0.448442,-0.622522,-0.641378
-32.0975,34.5547,91.9,0.411786,0,-3.5,0,-0.590164,-0.514078,-0.622438
-52.4164,37.267,146.31,-0.0254064,0,-0.4,0,-0.447907,-0.891409,0.0690582
-35.3525,49.7001,115.549,0.398567,0,-1.51698,1,-0.492286,0.522943,-0.695834
-40.1478,26.4403,106.158,-1.79925,-0.00365123,-3.33762,0,0.633544,-0.744305,-0.211264
-52.8338,67.9601,144.19,0.857188,0,-4.5,0,-0.513262,0.375597,-0.77168
-31.7255,52.4027,109.881,0.5153,0,-1.6,1,-0.0323024,0.921247,0.387636
-40.086,34.4065,144.833,-0.0674642,0,-0.9,0,0.752859,-0.17426,0.634694
